time,intensity
0.032031249999999734,70.21689094519374
0.040031249999999734,70.43902537509031
0.048031249999999734,70.44004988526888
0.056031249999999734,70.23519313726482
0.06403124999999973,69.92992368126258
0.07203124999999974,69.31592091419486
0.08003124999999973,68.26807714555798
0.08803124999999973,67.37707492396294
0.09603124999999973,66.83360403151335
0.10403124999999974,66.6528283626614
0.11203124999999974,66.81094716171064
0.12003124999999973,67.08138531714312
0.12803124999999974,67.89430243968732
0.13603124999999974,68.84678771897245
0.14403124999999972,69.64892350407597
0.15203124999999973,70.31468828244977
0.16003124999999974,70.57077728430217
0.16803124999999974,70.70029928353365
0.17603124999999975,70.53382037571791
0.18403124999999973,69.63444514627915
0.19203124999999974,68.84683728544121
0.20003124999999974,68.46909442419565
0.20803124999999972,68.11971227224898
0.21603124999999973,67.80262502796408
0.22403124999999974,67.30264456345165
0.23203124999999974,66.69575447089161
0.24003124999999975,66.22231451884927
0.24803124999999973,65.96191557079281
0.2560312499999997,65.63321303464079
0.2640312499999997,65.34164841374454
0.2720312499999997,65.50143970511903
0.28003124999999973,65.87466493701328
0.28803124999999974,66.29742646970294
0.29603124999999975,66.48419129107558
0.30403124999999975,66.03548988561144
0.31203124999999976,65.15072845151786
0.32003124999999977,63.95851918289189
0.3280312499999997,61.97230653461495
0.3360312499999997,59.45980006819533
0.34403124999999973,57.31630590634047
0.35203124999999974,55.559742030608
0.36003124999999975,55.38420406184048
0.36803124999999975,56.30407082154771
0.37603124999999976,57.43659277787664
0.3840312499999997,58.842815460834565
0.3920312499999997,62.48068993056202
0.4000312499999997,66.24311108939254
0.40803124999999973,68.42327336532412
0.41603124999999974,69.62543612417716
0.42403124999999975,70.50086901346694
0.43203124999999976,71.36995653294684
0.44003124999999976,72.11374942470145
0.44803124999999977,72.82099579330782
0.4560312499999997,73.31653596821687
0.46403124999999973,73.28323104927654
0.47203124999999974,72.86892445509716
0.48003124999999974,71.8412082300107
0.48803124999999975,69.7225553793098
0.49603124999999976,66.41290945433414
0.5040312499999997,62.76004073104164
0.5120312499999997,60.57836916919342
0.5200312499999997,58.923117350660874
0.5280312499999997,59.37346786198831
0.5360312499999997,60.81023960603747
0.5440312499999997,60.695179906283585
0.5520312499999998,59.2204955998038
0.5600312499999998,62.10047045539436
0.5680312499999998,68.35090991032727
0.5760312499999998,73.0198553826859
0.5840312499999998,75.54731155418196
0.5920312499999998,76.2742307166089
0.6000312499999998,75.80666626702919
0.6080312499999998,75.14234980918135
0.6160312499999997,74.58104115245484
0.6240312499999997,73.60071643162738
0.6320312499999997,72.51740229676219
0.6400312499999997,71.99329906561263
0.6480312499999997,71.65494362577948
0.6560312499999997,70.84218873882106
0.6640312499999997,69.73073166905537
0.6720312499999997,68.75541804262457
0.6800312499999998,67.9355963800518
0.6880312499999998,67.52654393881988
0.6960312499999998,67.37257684549316
0.7040312499999998,67.93067171329815
0.7120312499999998,69.76758334852153
0.7200312499999998,70.9187170650598
0.7280312499999998,70.81866339479112
0.7360312499999997,70.80439154865094
0.7440312499999997,71.22720248353295
0.7520312499999997,72.10339528340793
0.7600312499999997,73.29951164961908
0.7680312499999997,74.45398439093253
0.7760312499999997,75.10112898556211
0.7840312499999997,75.03257053167029
0.7920312499999997,74.63585889832896
0.8000312499999997,74.41369342588432
0.8080312499999998,74.19050598780748
0.8160312499999998,73.62775437278594
0.8240312499999998,72.84537914189764
0.8320312499999998,72.06647329419845
0.8400312499999998,70.5787624881915
0.8480312499999998,67.78775832371657
0.8560312499999998,64.79212347689445
0.8640312499999998,64.83101621702833
0.8720312499999997,66.38054447198509
0.8800312499999997,67.22379729403644
0.8880312499999997,67.16469285196106
0.8960312499999997,66.26337578841692
0.9040312499999997,64.51027079471544
0.9120312499999997,62.59242964519358
0.9200312499999997,60.802960821538115
0.9280312499999998,59.090613125098024
0.9360312499999998,59.51162085679323
0.9440312499999998,60.455812058654544
0.9520312499999998,60.013093920247805
0.9600312499999998,60.11032533272512
0.9680312499999998,60.96098376574336
0.9760312499999998,60.64754432660496
0.9840312499999998,61.03703163688629
0.9920312499999997,64.31673390246897
1.0000312499999997,68.10300940369494
1.0080312499999997,71.10745344381097
1.0160312499999997,72.93821278600599
1.0240312499999997,73.71531639345345
1.0320312499999997,74.02554267459584
1.0400312499999997,74.18887332363869
1.0480312499999997,74.23629078011129
1.0560312499999998,73.89179431344776
1.0640312499999998,73.25415070557683
1.0720312499999998,72.8023847498265
1.0800312499999998,72.66967597793773
1.0880312499999998,72.48647031222113
1.0960312499999998,71.98520969236722
1.1040312499999998,71.1198701421689
1.1120312499999998,70.38537120938962
1.1200312499999998,69.86851625035327
1.1280312499999998,69.18146091403572
1.1360312499999998,68.22350071285857
1.1440312499999998,66.92170551794281
1.1520312499999998,65.33883447814895
1.1600312499999998,64.35592051633901
1.1680312499999999,64.4567259539359
1.1760312499999999,64.99022220363112
1.1840312499999999,65.5716645448854
1.1920312499999997,65.99259851026915
1.2000312499999997,66.51526647999474
1.2080312499999997,66.98791052986775
1.2160312499999997,67.25191643125503
1.2240312499999997,67.93453927308727
1.2320312499999997,69.02607738526764
1.2400312499999997,70.10204462866615
1.2480312499999997,71.10772553674897
1.2560312499999997,71.94004055553134
1.2640312499999997,72.27281955897897
1.2720312499999997,72.38245742307066
1.2800312499999997,72.56067611613229
1.2880312499999997,72.59516112344383
1.2960312499999997,72.42866504276112
1.3040312499999998,71.97394396870872
1.3120312499999998,71.70845837235062
1.3200312499999998,71.78241234846811
1.3280312499999998,71.50599232198316
1.3360312499999998,70.91274446212304
1.3440312499999998,69.89618581627177
1.3520312499999998,68.62509578043591
1.3600312499999998,67.90702637852847
1.3680312499999998,67.57727028823345
1.3760312499999998,67.17628401895863
1.3840312499999998,67.16740862178006
1.3920312499999998,67.71129339496326
1.4000312499999998,68.20414879749083
1.4080312499999998,68.52808870498171
1.4160312499999999,68.81268563070833
1.4240312499999999,69.16780753253559
1.4320312499999999,69.61425630159607
1.4400312499999997,69.63910987470072
1.4480312499999997,68.8559614202484
1.4560312499999997,67.67887866628067
1.4640312499999997,66.97836048081504
1.4720312499999997,66.54435438677122
1.4800312499999997,65.63167070647305
1.4880312499999997,64.33387352123307
1.4960312499999997,63.841150248919845
1.5040312499999997,63.90115525050117
1.5120312499999997,64.26067931691892
1.5200312499999997,66.11427798544851
1.5280312499999997,67.44226728959703
1.5360312499999997,67.38277076215982
1.5440312499999997,67.13819200778087
1.5520312499999998,67.47756534043658
1.5600312499999998,67.97068593812425
1.5680312499999998,68.10954257313688
1.5760312499999998,68.01942262555391
1.5840312499999998,68.11670034997957
1.5920312499999998,68.38537305159265
1.6000312499999998,68.40220431320263
1.6080312499999998,68.32785710510039
1.6160312499999998,68.41281040472168
1.6240312499999998,68.524160924148
1.6320312499999998,68.33957343944218
1.6400312499999998,67.87322787024546
1.6480312499999998,67.5706990345449
1.6560312499999998,67.62547970610922
1.6640312499999999,67.70132138275692
1.6720312499999999,67.4234500062187
1.6800312499999999,67.06984405760804
1.6880312499999999,66.73209194004801
1.6960312499999999,66.28919941668849
1.7040312499999997,65.93370009601028
1.7120312499999997,65.89491840670061
1.7200312499999997,66.07463575966797
1.7280312499999997,65.97948565686808
1.7360312499999997,65.63358561962023
1.7440312499999997,65.16788864463993
1.7520312499999997,64.49986370332195
1.7600312499999997,63.64698867779262
1.7680312499999997,62.31755256890742
1.7760312499999997,59.43573873011992
1.7840312499999997,56.11909302494596
1.7920312499999997,55.94056921660899
1.8000312499999997,54.39835448828239
1.8080312499999998,53.18109732643067
1.8160312499999998,53.805002742942385
1.8240312499999998,54.42151040483744
1.8320312499999998,56.513091342258726
1.8400312499999998,61.94381509996298
1.8480312499999998,66.1884134136983
1.8560312499999998,67.58565078955826
1.8640312499999998,68.22991513308725
1.8720312499999998,68.82419047687185
1.8800312499999998,69.1357450907097
1.8880312499999998,69.58134152852706
1.8960312499999998,70.33051366026798
1.9040312499999998,70.93721142389556
1.9120312499999998,71.55029955992399
1.9200312499999999,72.27854077749116
1.9280312499999999,72.88930922470124
1.9360312499999999,73.13747291854811
1.9440312499999999,72.64630389211007
1.9520312499999997,71.4005363887732
1.9600312499999997,69.88426087006407
1.9680312499999997,68.32715170833507
1.9760312499999997,67.20066612879087
1.9840312499999997,66.95318430058316
1.9920312499999997,66.300639881927
2.0000312499999997,65.01182477399232
2.0080312499999997,64.07779567355072
2.0160312499999997,63.808331118469475
2.0240312499999997,63.96271184154461
2.0320312499999997,64.51588655212126
2.0400312499999997,65.04063337036888
2.0480312499999997,65.13534705228388
2.0560312499999998,65.16927285537841
2.0640312499999998,65.04649610569523
2.0720312499999998,64.50990885545605
2.0800312499999998,63.787943592757834
2.08803125,62.93399916955147
2.09603125,62.35313491973571
2.10403125,62.44190924209444
2.11203125,62.24277020223231
2.12003125,60.54390358368923
2.12803125,57.23571599453007
2.13603125,53.015289944049506
2.14403125,50.49529475897333
2.15203125,51.31994177916117
2.16003125,52.496204484912155
2.16803125,52.23243207195359
2.17603125,52.86414310586727
2.18403125,54.586019029219976
2.19203125,55.080963065646486
2.20003125,54.92262884552156
2.20803125,56.541162902370026
2.21603125,57.02698402871447
2.22403125,54.39803969860839
2.23203125,52.1428238022101
2.24003125,53.74384683388491
2.24803125,55.36019548731503
2.25603125,55.85189948038288
2.26403125,55.43098506667751
2.27203125,54.03115112452832
2.28003125,51.769735510587
2.28803125,50.432919013307675
2.29603125,50.39842407805831
2.30403125,53.47824441304151
2.31203125,56.73319324704422
2.32003125,56.90958903948843
2.32803125,53.95637510566032
2.33603125,50.56069753698394
2.3440312499999996,50.48819471432229
2.3520312499999996,51.26412663828387
2.3600312499999996,52.1041586729983
2.3680312499999996,51.77916634212445
2.3760312499999996,50.50608142218554
2.3840312499999996,50.84737895340816
2.3920312499999996,51.07175194490442
2.4000312499999996,50.47891843479404
2.4080312499999996,49.440046846640364
2.4160312499999996,49.514439622009746
2.4240312499999996,50.15307534137979
2.4320312499999996,49.702155667487126
2.4400312499999997,50.696378803972515
2.4480312499999997,51.5408195833351
2.4560312499999997,50.19674249082564
2.4640312499999997,50.26807628779758
2.4720312499999997,50.41377245601162
2.4800312499999997,49.083247225218216
2.4880312499999997,50.976515916457075
2.4960312499999997,52.1208878394447
2.5040312499999997,52.66803926554891
2.5120312499999997,56.09595293417123
2.5200312499999997,58.17245935684958
2.5280312499999997,57.78439273751034
2.5360312499999997,56.90078381269433
2.5440312499999997,57.70896662162083
2.5520312499999998,59.089930303270826
2.5600312499999998,59.71570467860387
2.5680312499999998,59.13249432247759
2.5760312499999998,58.66700894540104
2.58403125,60.44608173148148
2.59203125,64.26375220195384
2.60003125,68.5355441167384
2.60803125,71.02400235540487
2.61603125,71.92966289741682
2.62403125,71.67895997642691
2.63203125,70.08809479262938
2.64003125,66.93981861439133
2.64803125,62.52156222197495
2.65603125,57.87889911430728
2.66403125,55.496834480702105
2.67203125,56.14722059926991
2.68003125,56.04230612900195
2.68803125,54.940286898768875
2.69603125,53.64037536950562
2.70403125,52.046441531455976
2.71203125,50.93453124318788
2.72003125,51.307002059430104
2.72803125,51.545374062043486
2.73603125,52.11810206950305
2.74403125,53.31097038123177
2.75203125,54.005927991187725
2.76003125,54.84273112436034
2.76803125,59.52421143791347
2.77603125,63.95161791251177
2.78403125,66.707743826519
2.79203125,68.43392431822022
2.80003125,69.38801118386667
2.80803125,69.59488551267998
2.81603125,69.35592903372779
2.82403125,68.97766614324993
2.83203125,68.5489245036632
2.84003125,68.74629461112858
2.8480312499999996,69.46355591549543
2.8560312499999996,70.08728144000459
2.8640312499999996,70.26995548111061
2.8720312499999996,70.07226542289818
2.8800312499999996,69.67995876351704
2.8880312499999996,69.24557244652158
2.8960312499999996,68.88076743895782
2.9040312499999996,68.48542317660636
2.9120312499999996,68.14732272512697
2.9200312499999996,67.30394898889455
2.9280312499999996,64.21330987086779
2.9360312499999996,59.989967633117715
2.9440312499999997,58.973992290583055
2.9520312499999997,58.615097170255396
2.9600312499999997,58.636979087558544
2.9680312499999997,59.54351625941534
2.9760312499999997,63.60316194521072
2.9840312499999997,67.03797525446844
2.9920312499999997,69.59236886170689
3.0000312499999997,71.78220979156893
3.0080312499999997,73.75610255177479
3.0160312499999997,74.93367716735817
3.0240312499999997,74.81639941843542
3.0320312499999997,74.0728925076541
3.0400312499999997,73.4673633985848
3.0480312499999997,73.34944421020606
3.0560312499999998,73.43798293627378
3.0640312499999998,73.44442479880084
3.0720312499999998,73.3558011239053
3.0800312499999998,73.17024634808081
3.08803125,72.96859518674891
3.09603125,72.46520901796943
3.10403125,71.55924111624124
3.11203125,70.66741897305485
3.12003125,69.8675095761596
3.12803125,68.94527997277427
3.13603125,68.23971180527286
3.14403125,68.11429710478248
3.15203125,68.41658896557027
3.16003125,69.09486762236001
3.16803125,70.00713958483682
3.17603125,70.78426619103857
3.18403125,71.18821190045088
3.19203125,71.44895629735919
3.20003125,71.74438994561967
3.20803125,71.94848515837293
3.21603125,72.07010742299774
3.22403125,72.1807772372601
3.23203125,72.22638527893676
3.24003125,71.81278355130777
3.24803125,71.1924331701066
3.25603125,70.825471897247
3.26403125,70.65301754639327
3.27203125,70.666247826506
3.28003125,70.7448959848436
3.28803125,70.8912642729557
3.29603125,70.95675336466573
3.30403125,70.59035134662655
3.31203125,69.91057665829649
3.32003125,69.10232546072143
3.32803125,68.30866799714207
3.33603125,67.51722104843455
3.34403125,66.04443377106304
3.35203125,63.3896318174683
3.36003125,59.85594426385263
3.3680312499999996,56.37042408354156
3.3760312499999996,54.43686038878254
3.3840312499999996,53.36252730388014
3.3920312499999996,53.77373581790443
3.4000312499999996,57.281734864529945
3.4080312499999996,60.39552069437411
3.4160312499999996,60.834552497879415
3.4240312499999996,59.9784944205441
3.4320312499999996,61.29368550768072
3.4400312499999997,62.885865062263136
3.4480312499999997,63.2315044683351
3.4560312499999997,62.63641293053703
3.4640312499999997,61.33003513135924
3.4720312499999997,60.320423737629966
3.4800312499999997,59.698381802345686
3.4880312499999997,59.637632171813586
3.4960312499999997,59.09060538458509
3.5040312499999997,60.233486773083904
3.5120312499999997,64.9867737411307
3.5200312499999997,68.52059635432421
3.5280312499999997,70.16964244935701
3.5360312499999997,70.75715909902306
3.5440312499999997,70.8969577155756
3.5520312499999998,70.85775043921062
3.5600312499999998,70.59248246849279
3.5680312499999998,69.96581821546577
3.5760312499999998,69.22458020651796
3.58403125,68.88477043341612
3.59203125,69.07924664681045
3.60003125,69.36726122791367
3.60803125,69.49572422034394
3.61603125,69.73499960993698
3.62403125,69.57616316545395
3.63203125,68.32255394656724
3.64003125,65.73917397722457
3.64803125,61.88862070575328
3.65603125,58.401768804898715
3.66403125,58.23550907696324
3.67203125,58.272627089518274
3.68003125,57.86472035250818
3.68803125,57.94303861251838
3.69603125,56.796614939193404
3.70403125,56.20229133263818
3.71203125,57.28793561027796
3.72003125,57.554650738858236
3.72803125,57.29245410697811
3.73603125,56.72309054327422
3.74403125,56.69366647757865
3.75203125,61.72425928647846
3.76003125,65.73707036943438
3.76803125,67.60214158717692
3.77603125,68.37192166404799
3.78403125,68.2424097878238
3.79203125,67.9088664894178
3.80003125,68.41175713813966
3.80803125,69.24576166831108
3.81603125,69.68105904336912
3.82403125,69.63363244163398
3.83203125,69.3004480524443
3.84003125,68.75141639487089
3.84803125,67.80697909739644
3.85603125,66.59519758626487
3.86403125,65.58831677308699
3.8720312499999996,64.96918892003525
3.8800312499999996,64.21503628311994
3.8880312499999996,62.71738121016527
3.8960312499999996,60.83751916256348
3.9040312499999996,60.10834421310864
3.9120312499999996,59.691636544579865
3.9200312499999996,58.43791591430434
3.9280312499999996,57.930015938133636
3.9360312499999996,58.262355648160295
3.9440312499999997,58.22407883209867
3.9520312499999997,59.59265354822583
3.9600312499999997,63.09255362968064
3.9680312499999997,66.33106031770029
3.9760312499999997,68.68421906428142
3.9840312499999997,70.15493628358419
3.9920312499999997,70.60946504291776
4.000031249999999,70.29586845742855
4.00803125,70.08170076720062
4.016031249999999,70.14311548580488
4.02403125,69.80102437601576
4.032031249999999,68.76579407153856
4.04003125,67.53462879125898
4.048031249999999,66.60578421768912
4.05603125,65.39950205647065
4.064031249999999,63.86647684218638
4.07203125,62.583137490618654
4.080031249999999,61.0644735643382
4.08803125,59.5893205540262
4.096031249999999,58.84409067505138
4.10403125,58.24273883896243
4.112031249999999,57.866313566940974
4.12003125,59.84087770826568
4.128031249999999,63.296135306134076
4.13603125,65.89427144554753
4.144031249999999,67.100937472021
4.15203125,67.0025293492052
4.160031249999999,66.63481847135279
4.16803125,66.90639641893463
4.176031249999999,67.40549952917333
4.18403125,67.9063974263841
4.192031249999999,68.27487157474765
4.20003125,68.67658878739628
4.2080312499999994,68.9941075043357
4.21603125,69.10065676055876
4.2240312499999995,68.98410848822482
4.23203125,68.50293324506787
4.2400312499999995,67.8796781368742
4.24803125,67.20661063221104
4.2560312499999995,66.63286982915639
4.26403125,66.19410372542072
4.2720312499999995,66.02941897522436
4.28003125,66.2426089323185
4.2880312499999995,66.72945878682951
4.29603125,66.98469737324957
4.3040312499999995,66.91746637967918
4.31203125,66.82820310487257
4.3200312499999995,66.93316634217415
4.32803125,67.08980821639356
4.33603125,67.0348420653058
4.3440312500000005,66.941667940815
4.35203125,66.68497470520836
4.3600312500000005,66.51155594006264
4.36803125,66.7327019135899
4.3760312500000005,67.20297306788015
4.38403125,67.36257988395957
4.3920312500000005,67.07574362735501
4.40003125,66.91438036024974
4.4080312500000005,66.94771072242646
4.41603125,66.97422476983583
4.4240312500000005,67.1857093103635
4.43203125,67.426647732956
4.4400312500000005,67.51590806141462
4.44803125,67.50360460179107
4.4560312500000006,67.50131490639868
4.46403125,67.33234410191977
4.472031250000001,66.83768296351013
4.48003125,66.30612891995797
4.488031250000001,65.91494789654021
4.49603125,65.77940488792675
4.504031250000001,65.62162874628585
4.51203125,65.4778883024596
4.520031250000001,65.21428125269792
4.52803125,64.72334485192088
4.536031250000001,64.41893927114477
4.54403125,64.36034277208032
4.552031250000001,64.33261388135429
4.56003125,64.19469645722616
4.568031250000001,63.8440771773448
4.57603125,63.06778101103748
4.584031250000001,61.516112562885716
4.59203125,59.645574872542056
4.600031250000001,57.30644682297297
4.60803125,53.92280518173729
4.616031250000001,52.89463146862178
4.62403125,53.36313582315868
4.632031250000001,54.00433398421464
4.64003125,54.51555177313843
4.648031249999999,53.99494464646685
