time,intensity
0.032031249999999734,43.18306253399577
0.040031249999999734,51.67014482700789
0.048031249999999734,62.599361012489624
0.056031249999999734,69.54877878689038
0.06403124999999973,73.30674566467563
0.07203124999999974,74.7561861253823
0.08003124999999973,74.83991332842422
0.08803124999999973,74.40601148353191
0.09603124999999973,73.64676855347183
0.10403124999999974,72.54878787480595
0.11203124999999974,71.91902637149359
0.12003124999999973,71.94133960563445
0.12803124999999974,72.07597395847804
0.13603124999999974,72.19207819469474
0.14403124999999972,72.26162540774399
0.15203124999999973,72.45011667780216
0.16003124999999974,72.72612093027186
0.16803124999999974,72.84644500152048
0.17603124999999975,72.70507530300455
0.18403124999999973,72.28878974552129
0.19203124999999974,72.07139332123212
0.20003124999999974,72.2843495713673
0.20803124999999972,72.80815077390236
0.21603124999999973,73.36081687283082
0.22403124999999974,73.68835789904216
0.23203124999999974,73.8286268688147
0.24003124999999975,73.94039620661447
0.24803124999999973,73.98031622512549
0.2560312499999997,73.84813462976281
0.2640312499999997,73.58709769681242
0.2720312499999997,73.32734531254808
0.28003124999999973,73.21411884719788
0.28803124999999974,73.20832797614963
0.29603124999999975,73.29384264416214
0.30403124999999975,73.55426372128674
0.31203124999999976,73.90209588978496
0.32003124999999977,74.12194453176666
0.3280312499999997,74.0828256286594
0.3360312499999997,73.89596567572427
0.34403124999999973,73.68904059166536
0.35203124999999974,73.40814865336617
0.36003124999999975,73.12205762790512
0.36803124999999975,72.91466392578023
0.37603124999999976,72.68292816494503
0.3840312499999997,72.4073041859587
0.3920312499999997,72.18393416141754
0.4000312499999997,72.07511387996448
0.40803124999999973,72.01323098581692
0.41603124999999974,71.93217061431882
0.42403124999999975,71.8941210347298
0.43203124999999976,71.91131051107942
0.44003124999999976,71.87492059407488
0.44803124999999977,71.74286419517016
0.4560312499999997,71.64425321512739
0.46403124999999973,71.62993732680769
0.47203124999999974,71.57743150180848
0.48003124999999974,71.4044290047161
0.48803124999999975,71.16409117697788
0.49603124999999976,71.00319947603137
0.5040312499999997,71.04394165470273
0.5120312499999997,71.26441422814943
0.5200312499999997,71.57606194703759
0.5280312499999997,71.84543484938003
0.5360312499999997,72.04076571805433
0.5440312499999997,72.24350753120012
0.5520312499999998,72.47137640881799
0.5600312499999998,72.65704056583125
0.5680312499999998,72.74817274703706
0.5760312499999998,72.71909940507112
0.5840312499999998,72.61064871257881
0.5920312499999998,72.41334708955895
0.6000312499999998,72.08404970249474
0.6080312499999998,71.70901987959957
0.6160312499999997,71.26884570039222
0.6240312499999997,70.66954451732263
0.6320312499999997,69.97661161872746
0.6400312499999997,69.09137822598291
0.6480312499999997,67.866850711396
0.6560312499999997,66.1528065373204
0.6640312499999997,63.76046494908631
0.6720312499999997,60.40457957798387
0.6800312499999998,55.89347605301604
0.6880312499999998,51.79060366736258
0.6960312499999998,50.08043619909088
0.7040312499999998,49.28159001244141
0.7120312499999998,48.68206340137945
0.7200312499999998,47.51474383123458
0.7280312499999998,46.293445810327185
0.7360312499999997,45.63431976860536
0.7440312499999997,44.69895401565445
0.7520312499999997,43.647456357293414
0.7600312499999997,43.849965719472564
0.7680312499999997,44.19317412803892
0.7760312499999997,43.504795688441774
0.7840312499999997,42.94044258524327
0.7920312499999997,43.41568427910307
0.8000312499999997,44.2251365413852
0.8080312499999998,45.33183715374817
0.8160312499999998,45.75161736911366
0.8240312499999998,45.090084886645045
0.8320312499999998,43.56772425699872
0.8400312499999998,42.05379872048834
0.8480312499999998,42.95004818700518
0.8560312499999998,43.91221647713017
0.8640312499999998,43.24789767807512
0.8720312499999997,42.28016674629881
0.8800312499999997,41.99097034645331
0.8880312499999997,42.399387467414414
0.8960312499999997,42.40844822438788
0.9040312499999997,41.792698822336796
0.9120312499999997,41.31625608622042
0.9200312499999997,40.43564796435219
0.9280312499999998,39.76217934259724
0.9360312499999998,40.72088591534009
0.9440312499999998,42.25980483555885
0.9520312499999998,42.767993000678935
0.9600312499999998,42.52963363086445
0.9680312499999998,41.971105590559574
0.9760312499999998,39.821221185355995
0.9840312499999998,39.27921613700839
0.9920312499999997,49.29989939927034
1.0000312499999997,59.24371339579685
1.0080312499999997,64.43382039230582
1.0160312499999997,65.57536273814937
1.0240312499999997,63.42165388653737
1.0320312499999997,65.31631214724885
1.0400312499999997,70.60601227414966
1.0480312499999997,72.99433293795963
1.0560312499999998,73.58760995791219
1.0640312499999998,73.73927186431241
1.0720312499999998,73.85139470522998
1.0800312499999998,73.64195328432233
1.0880312499999998,72.26457495489387
1.0960312499999998,69.53686814084443
1.1040312499999998,66.54693050189863
1.1120312499999998,64.03070582464493
1.1200312499999998,61.98185715952598
1.1280312499999998,60.80789170303423
1.1360312499999998,61.83884579018709
1.1440312499999998,65.85888632437042
1.1520312499999998,70.40088472223358
1.1600312499999998,73.8112810537007
1.1680312499999999,75.92320350141236
1.1760312499999999,76.60646457559926
1.1840312499999999,75.66522991468561
1.1920312499999997,73.33865829955994
1.2000312499999997,70.51472824019147
1.2080312499999997,69.0444377267727
1.2160312499999997,69.3137417056571
1.2240312499999997,70.34927071840089
1.2320312499999997,71.3770240183094
1.2400312499999997,71.6478103683121
1.2480312499999997,70.44995974460804
1.2560312499999997,68.32319895510263
1.2640312499999997,66.77221645715949
1.2720312499999997,64.61209527165829
1.2800312499999997,60.730274490890054
1.2880312499999997,56.062211537045066
1.2960312499999997,51.98017015877931
1.3040312499999998,48.07457598537325
1.3120312499999998,44.85970569623947
1.3200312499999998,44.16512850483076
1.3280312499999998,47.79439606667154
1.3360312499999998,54.127619340562006
1.3440312499999998,57.33771375641788
1.3520312499999998,58.739812629790514
1.3600312499999998,60.13470501199396
1.3680312499999998,60.26787039927714
1.3760312499999998,59.146630200998814
1.3840312499999998,57.364325116593264
1.3920312499999998,61.820351053450146
1.4000312499999998,69.17930707246299
1.4080312499999998,73.41621066108931
1.4160312499999999,75.04874806325728
1.4240312499999999,75.0732158033534
1.4320312499999999,73.81347489903486
1.4400312499999997,70.91321158178482
1.4480312499999997,67.30274078520105
1.4560312499999997,66.35392884486069
1.4640312499999997,66.52657741107686
1.4720312499999997,66.51640136459133
1.4800312499999997,66.99100650611405
1.4880312499999997,67.50301788178302
1.4960312499999997,67.61736921507688
1.5040312499999997,67.42602761968493
1.5120312499999997,66.99425189032931
1.5200312499999997,66.24419714834329
1.5280312499999997,65.15693411903753
1.5360312499999997,63.53935362957393
1.5440312499999997,61.00490014635095
1.5520312499999998,57.377535284995204
1.5600312499999998,52.752581709535285
1.5680312499999998,49.51763193817001
1.5760312499999998,47.143641191182624
1.5840312499999998,44.219132707916074
1.5920312499999998,44.726972078357925
1.6000312499999998,52.66753932736749
1.6080312499999998,58.48266083212871
1.6160312499999998,61.57696213588248
1.6240312499999998,64.47618539150878
1.6320312499999998,67.97077965607733
1.6400312499999998,71.11294447120062
1.6480312499999998,73.689634601828
1.6560312499999998,75.5247028816118
1.6640312499999999,76.09601162566418
1.6720312499999999,75.3237603196801
1.6800312499999999,73.84499079537764
1.6880312499999999,72.53474384463783
1.6960312499999999,71.26384387478132
1.7040312499999997,68.95167595205676
1.7120312499999997,65.79289791949262
1.7200312499999997,64.0286387671583
1.7280312499999997,63.555889900257014
1.7360312499999997,63.21755177909969
1.7440312499999997,63.064098922300545
1.7520312499999997,64.46158233882565
1.7600312499999997,67.62897209014196
1.7680312499999997,70.13400441949103
1.7760312499999997,70.86661313349947
1.7840312499999997,69.78512103060693
1.7920312499999997,67.781529438475
1.8000312499999997,66.37854277728525
1.8080312499999998,65.83004483679314
1.8160312499999998,65.34152928627309
1.8240312499999998,64.44241178593361
1.8320312499999998,62.87097756040293
1.8400312499999998,60.59030420177428
1.8480312499999998,57.216290505892225
1.8560312499999998,51.95431134295572
1.8640312499999998,46.12835936266418
1.8720312499999998,43.814798749337015
1.8800312499999998,45.49284147056265
1.8880312499999998,47.92651753075657
1.8960312499999998,48.7219990468687
1.9040312499999998,48.65740425476244
1.9120312499999998,48.36592499061978
1.9200312499999999,52.6382758824472
1.9280312499999999,61.56544662449467
1.9360312499999999,66.9608965196719
1.9440312499999999,68.90682097397541
1.9520312499999997,68.62535441620545
1.9600312499999997,67.24433389156847
1.9680312499999997,65.59875000813267
1.9760312499999997,64.46231689564209
1.9840312499999997,64.45474462277528
1.9920312499999997,65.46604407754234
2.0000312499999997,67.44821628675028
2.0080312499999997,69.30163178241122
2.0160312499999997,70.08815875634001
2.0240312499999997,70.20391714994922
2.0320312499999997,70.31832675520354
2.0400312499999997,70.62805084004899
2.0480312499999997,71.03731298102518
2.0560312499999998,71.36016788748884
2.0640312499999998,71.30814942788138
2.0720312499999998,70.78137798093127
2.0800312499999998,69.62388235436372
2.08803125,67.64956579216081
2.09603125,65.03995376966274
2.10403125,61.556208456421984
2.11203125,56.77563994160213
2.12003125,51.290113080302234
2.12803125,48.308622139438114
2.13603125,52.12180209043375
2.14403125,55.84575149407602
2.15203125,57.83643350596029
2.16003125,59.6055197533914
2.16803125,60.54682405509416
2.17603125,61.547505506071076
2.18403125,64.03126187731219
2.19203125,65.47862612828554
2.20003125,65.33400821650774
2.20803125,63.40867523902222
2.21603125,59.86813245286367
2.22403125,57.295022127632606
2.23203125,57.30912235502056
2.24003125,58.74839138739404
2.24803125,63.30644210732281
2.25603125,69.03970727838391
2.26403125,72.60111579519759
2.27203125,73.44240930634865
2.28003125,72.70018902935732
2.28803125,71.82926873469106
2.29603125,71.03465421805511
2.30403125,70.69074866170732
2.31203125,70.95231002155187
2.32003125,70.49726849712431
2.32803125,68.03392655150444
2.33603125,63.10269718052473
2.3440312499999996,56.03059133637747
2.3520312499999996,48.28822119275681
2.3600312499999996,43.58675587667939
2.3680312499999996,43.270337944981065
2.3760312499999996,43.612973123811614
2.3840312499999996,42.767737018725185
2.3920312499999996,42.40822086681405
2.4000312499999996,41.75215621658615
2.4080312499999996,41.01208998119731
2.4160312499999996,43.163252646162704
2.4240312499999996,57.57767724301762
2.4320312499999996,67.06509462934919
2.4400312499999997,71.05815941280082
2.4480312499999997,71.83499439593612
2.4560312499999997,72.49612389545489
2.4640312499999997,73.45893669620055
2.4720312499999997,73.90562924363712
2.4800312499999997,73.91860342620082
2.4880312499999997,73.74772492386165
2.4960312499999997,73.39914358384954
2.5040312499999997,72.87304771626061
2.5120312499999997,72.48651035810721
2.5200312499999997,72.6438412280348
2.5280312499999997,72.8974055316953
2.5360312499999997,72.29515209955724
2.5440312499999997,70.605710090649
2.5520312499999998,68.74544445819444
2.5600312499999998,67.80568768434414
2.5680312499999998,67.5151537949223
2.5760312499999998,67.39457409444073
2.58403125,67.81009763583708
2.59203125,69.20356963023157
2.60003125,69.8985495091584
2.60803125,69.07989290613614
2.61603125,68.54295509841648
2.62403125,68.44598912777742
2.63203125,68.59062445040414
2.64003125,69.05457949815295
2.64803125,69.42333523417783
2.65603125,69.86878776589882
2.66403125,70.67036786246453
2.67203125,71.67229820606978
2.68003125,72.25115104020642
2.68803125,72.12841377796356
2.69603125,70.93842823901727
2.70403125,68.70971893334277
2.71203125,66.65395793664385
2.72003125,64.33586638428436
2.72803125,60.39717470478769
2.73603125,54.95606116994889
2.74403125,49.2159588804249
2.75203125,44.19435107578484
2.76003125,44.965448854681014
2.76803125,50.92373993271471
2.77603125,54.32022597758458
2.78403125,56.26647139998106
2.79203125,57.26717035652966
2.80003125,55.69459946889027
2.80803125,55.91083022327072
2.81603125,62.203773747333514
2.82403125,67.16872311896132
2.83203125,70.1572695166551
2.84003125,71.50846682644506
2.8480312499999996,70.91818822499724
2.8560312499999996,68.19950286760539
2.8640312499999996,65.43277675156897
2.8720312499999996,64.54662241506946
2.8800312499999996,64.5955577075136
2.8880312499999996,65.39283967139217
2.8960312499999996,66.3189938192253
2.9040312499999996,67.02279665816778
2.9120312499999996,67.46042627316423
2.9200312499999996,67.69974334981863
2.9280312499999996,67.82638917214607
2.9360312499999996,67.90679582175476
2.9440312499999997,67.97842057965266
2.9520312499999997,67.9276884758224
2.9600312499999997,67.52255527419771
2.9680312499999997,66.5444047142102
2.9760312499999997,64.77638461142953
2.9840312499999997,62.90706428766026
2.9920312499999997,61.76424136225965
3.0000312499999997,60.79993837712153
3.0080312499999997,59.829831247296795
3.0160312499999997,59.930157439170664
3.0240312499999997,63.117736204017945
3.0320312499999997,67.95202826068598
3.0400312499999997,71.69654695017549
3.0480312499999997,73.60753186990662
3.0560312499999998,73.96614493543998
3.0640312499999998,73.40162903334112
3.0720312499999998,72.77128112597887
3.0800312499999998,72.57594524635186
3.08803125,72.52441398303189
3.09603125,72.42309480842847
3.10403125,72.20289240077678
3.11203125,71.90485552754697
3.12003125,71.33852223474196
3.12803125,70.21359722978316
3.13603125,68.51588587207726
3.14403125,66.40223201075217
3.15203125,63.90796708911117
3.16003125,60.57700048763691
3.16803125,55.683121600450036
3.17603125,49.70607796149335
3.18403125,44.980806064128714
3.19203125,42.764302939504326
3.20003125,42.62831618139499
3.20803125,43.799471492008536
3.21603125,43.586355520525174
3.22403125,42.26704186336192
3.23203125,40.80648790976496
3.24003125,40.62325794579774
3.24803125,41.92265944887617
3.25603125,42.82174647967238
3.26403125,43.58147449958078
3.27203125,42.91028948108558
3.28003125,41.539620968119735
3.28803125,40.87843860135277
3.29603125,40.60614286973072
3.30403125,40.52056616773058
3.31203125,39.798108480264325
3.32003125,39.401824878340264
3.32803125,40.508788160912246
3.33603125,41.14765487655308
3.34403125,41.251480976202394
3.35203125,41.87633645104424
3.36003125,42.7656648975828
3.3680312499999996,42.32650581837739
3.3760312499999996,40.865604071246196
3.3840312499999996,40.62814049153009
3.3920312499999996,42.00841170134125
3.4000312499999996,42.16653667676703
3.4080312499999996,41.84947860383027
3.4160312499999996,42.6180640653756
3.4240312499999996,42.24658170981347
3.4320312499999996,41.557165421533774
3.4400312499999997,42.17999723917626
3.4480312499999997,42.88860341434565
3.4560312499999997,42.201462714953294
3.4640312499999997,41.46075162012686
3.4720312499999997,40.925121212814815
3.4800312499999997,40.3601501763964
3.4880312499999997,40.72729886689586
3.4960312499999997,41.94158335707048
3.5040312499999997,43.39496675206553
3.5120312499999997,45.0523949770433
3.5200312499999997,45.86892557343618
3.5280312499999997,46.013815721924686
3.5360312499999997,47.59069701274015
3.5440312499999997,49.43006343938207
3.5520312499999998,49.65971063896558
3.5600312499999998,49.88920374170001
3.5680312499999998,50.86846600586402
3.5760312499999998,51.73428897841684
3.58403125,52.75185611553611
3.59203125,54.084276302638614
3.60003125,55.749166157459584
3.60803125,57.51135280715417
3.61603125,58.8905102753635
3.62403125,59.85257616701784
3.63203125,60.47733636303197
3.64003125,60.955923453245845
3.64803125,61.53038246128311
3.65603125,62.21408453167978
3.66403125,62.805505843392346
3.67203125,63.430967103596984
3.68003125,64.05538030801117
3.68803125,64.56851064337691
3.69603125,64.90808876905083
3.70403125,65.47929727876637
3.71203125,66.32682555473093
3.72003125,67.22588740519862
3.72803125,68.16803308755925
3.73603125,69.04954880009282
3.74403125,69.69353436993978
3.75203125,70.15815405945582
3.76003125,70.5896006343917
3.76803125,70.97644904288506
3.77603125,71.25086244257498
3.78403125,71.53751964839135
3.79203125,71.94193946830426
3.80003125,72.33262082466021
3.80803125,72.50610043569486
3.81603125,71.74948765524448
3.82403125,68.98984914323754
3.83203125,63.80289715383303
3.84003125,57.68620917817031
3.84803125,53.40675711059629
3.85603125,50.85619173169665
3.86403125,49.430932829433786
3.8720312499999996,49.87519721237639
3.8800312499999996,54.06591187858032
3.8880312499999996,59.38383130199003
3.8960312499999996,64.00847537580789
3.9040312499999996,67.37975838276608
3.9120312499999996,69.42581638279802
3.9200312499999996,70.12853707271407
3.9280312499999996,69.58804969551716
3.9360312499999996,67.62844773772369
3.9440312499999997,63.77521211125419
3.9520312499999997,57.91551879039649
3.9600312499999997,50.93822855587015
3.9680312499999997,45.94588412983669
3.9760312499999997,44.76712251964382
3.9840312499999997,46.80369279049881
3.9920312499999997,51.42058403272592
4.000031249999999,55.307844337005136
4.00803125,57.552585136636594
4.016031249999999,58.60515902974663
4.02403125,57.89214172645026
4.032031249999999,61.40182680523019
4.04003125,68.31653268898637
4.048031249999999,72.76972843025652
4.05603125,74.48079774448873
4.064031249999999,73.59834826722653
4.07203125,71.34546146307075
4.080031249999999,70.07104596865007
4.08803125,70.29916592157166
4.096031249999999,70.97603821980584
4.10403125,70.7898961356252
4.112031249999999,69.69189964328982
4.12003125,69.3354819973791
4.128031249999999,69.40725848163892
4.13603125,68.76271932400411
4.144031249999999,67.33331217425744
4.15203125,65.23400397632487
4.160031249999999,62.65611699154824
4.16803125,60.3140675194276
4.176031249999999,59.432858596625096
4.18403125,59.89295734705338
4.192031249999999,59.63305523186981
4.20003125,58.67792369312147
4.2080312499999994,58.62826370024451
4.21603125,59.214978235048754
4.2240312499999995,59.44527404957685
4.23203125,59.22258263214738
4.2400312499999995,58.80239375790996
4.24803125,58.484310642037116
4.2560312499999995,57.320445404753364
4.26403125,54.79764773020557
4.2720312499999995,50.778031279230845
4.28003125,45.3038013278172
4.2880312499999995,41.909523793336454
4.29603125,42.1800738774524
4.3040312499999995,42.65029989639522
4.31203125,42.84097145270909
4.3200312499999995,42.925358906234045
4.32803125,43.24157655172961
4.33603125,43.99872482983331
4.3440312500000005,43.975828077345156
4.35203125,44.34974170260806
4.3600312500000005,44.37710517356854
4.36803125,44.22498568341258
4.3760312500000005,43.66517325899747
4.38403125,42.71514183423367
4.3920312500000005,43.50093250600448
4.40003125,44.758847847391756
4.4080312500000005,44.47466324419544
4.41603125,43.6054231478002
4.4240312500000005,42.64420797457373
4.43203125,42.779819094655956
4.4400312500000005,43.94744996191665
4.44803125,44.8155113644581
4.4560312500000006,44.301021678337456
4.46403125,43.19380555550059
4.472031250000001,42.916308639408626
4.48003125,42.67765295789928
4.488031250000001,42.826198072637766
4.49603125,43.1858877376433
4.504031250000001,42.487789827764566
4.51203125,41.6224064850412
4.520031250000001,42.472974542783746
4.52803125,44.03431045202198
4.536031250000001,44.28717027036929
4.54403125,43.324325105626016
4.552031250000001,42.50877999240285
4.56003125,41.883750955096694
4.568031250000001,41.446127691052354
4.57603125,42.164966952755705
4.584031250000001,43.95701678051431
4.59203125,53.65739010585233
4.600031250000001,63.179806100748706
4.60803125,69.1548320207339
4.616031250000001,72.60041459867378
4.62403125,74.5811883221407
4.632031250000001,75.56658409042639
