time,intensity
0.032031249999999734,70.9991263173775
0.040031249999999734,70.58692335360999
0.048031249999999734,69.66000408307427
0.056031249999999734,67.04520013181862
0.06403124999999973,63.62284104264681
0.07203124999999974,60.284387636402236
0.08003124999999973,55.23332280005807
0.08803124999999973,51.405942270202885
0.09603124999999973,49.763936006208596
0.10403124999999974,48.356652298504166
0.11203124999999974,47.494134569278444
0.12003124999999973,46.8250536830175
0.12803124999999974,48.62152136951481
0.13603124999999974,52.2665868796794
0.14403124999999972,57.01232166708344
0.15203124999999973,61.70550479931065
0.16003124999999974,65.23343186022198
0.16803124999999974,67.50499990704883
0.17603124999999975,68.52368296309761
0.18403124999999973,68.51871249360725
0.19203124999999974,68.04544432404315
0.20003124999999974,67.92121844269336
0.20803124999999972,69.16663585167926
0.21603124999999973,70.98999480161778
0.22403124999999974,71.96805064455316
0.23203124999999974,72.40954946554825
0.24003124999999975,72.80197312545953
0.24803124999999973,72.81461127856609
0.2560312499999997,72.3864181031246
0.2640312499999997,71.57965314719382
0.2720312499999997,70.40067288798838
0.28003124999999973,69.7420410871872
0.28803124999999974,69.04576793265416
0.29603124999999975,67.61515871872386
0.30403124999999975,67.73793317017336
0.31203124999999976,69.96117340166018
0.32003124999999977,71.74043053408298
0.3280312499999997,73.19829949366112
0.3360312499999997,74.28181023444387
0.34403124999999973,74.69527400240729
0.35203124999999974,74.500498998805
0.36003124999999975,74.37794667918689
0.36803124999999975,74.74287291624151
0.37603124999999976,75.06356455120849
0.3840312499999997,74.96552371769036
0.3920312499999997,74.66034639237691
0.4000312499999997,74.56841741130808
0.40803124999999973,74.58264972139384
0.41603124999999974,74.2513290340092
0.42403124999999975,74.08270384174676
0.43203124999999976,74.54526215466126
0.44003124999999976,75.28601582710027
0.44803124999999977,75.71554528278608
0.4560312499999997,75.50160098916042
0.46403124999999973,74.75710889980525
0.47203124999999974,74.04043325111735
0.48003124999999974,73.73133051124958
0.48803124999999975,73.52852235612421
0.49603124999999976,72.93947799415184
0.5040312499999997,71.89078017252744
0.5120312499999997,70.78052603261726
0.5200312499999997,70.80009302587978
0.5280312499999997,71.81710347618863
0.5360312499999997,71.13314698441319
0.5440312499999997,69.02728190086238
0.5520312499999998,67.53740775391086
0.5600312499999998,67.21300906230984
0.5680312499999998,67.86791614045057
0.5760312499999998,69.93078659395613
0.5840312499999998,71.4364686807321
0.5920312499999998,71.64477731135725
0.6000312499999998,71.0064844282181
0.6080312499999998,69.94925729556763
0.6160312499999997,68.12692118263841
0.6240312499999997,64.11147112533583
0.6320312499999997,57.682798014031704
0.6400312499999997,52.7525704183659
0.6480312499999997,51.61102056805152
0.6560312499999997,50.6066484467469
0.6640312499999997,49.43322277873069
0.6720312499999997,48.59391959140601
0.6800312499999998,47.476859732755024
0.6880312499999998,47.1593426616836
0.6960312499999998,48.951029245247604
0.7040312499999998,50.131480288606184
0.7120312499999998,49.2454600558643
0.7200312499999998,48.04752353363982
0.7280312499999998,48.00444001419346
0.7360312499999997,48.07550267280169
0.7440312499999997,47.41728411130386
0.7520312499999997,47.09874253216348
0.7600312499999997,47.40836781492587
0.7680312499999997,47.42608279916058
0.7760312499999997,47.42229045463324
0.7840312499999997,47.38545678755529
0.7920312499999997,47.468605965360304
0.8000312499999997,47.37377589726739
0.8080312499999998,46.93879266787272
0.8160312499999998,47.44925354497181
0.8240312499999998,48.328689267665936
0.8320312499999998,49.07138804977721
0.8400312499999998,49.49564483003114
0.8480312499999998,52.53190571289262
0.8560312499999998,57.79515801538899
0.8640312499999998,61.39515319007488
0.8720312499999997,62.04079559076725
0.8800312499999997,60.86733287598574
0.8880312499999997,61.83060361799623
0.8960312499999997,64.41188711740857
0.9040312499999997,66.46237878032251
0.9120312499999997,67.5511386707175
0.9200312499999997,67.43377028864175
0.9280312499999998,66.86854383083123
0.9360312499999998,67.97105061271445
0.9440312499999998,69.70854929594195
0.9520312499999998,70.56401049461039
0.9600312499999998,70.61934259174262
0.9680312499999998,70.82873717985717
0.9760312499999998,71.22582773596757
0.9840312499999998,71.40405676111459
0.9920312499999997,70.7679356954486
1.0000312499999997,69.00453769398388
1.0080312499999997,67.02436485908986
1.0160312499999997,65.9586157729113
1.0240312499999997,65.27720154436727
1.0320312499999997,64.83861557750365
1.0400312499999997,64.70496311086788
1.0480312499999997,64.20156623576459
1.0560312499999998,62.99529279600335
1.0640312499999998,61.49895388145474
1.0720312499999998,59.96204630395587
1.0800312499999998,57.810306410643584
1.0880312499999998,54.55764344655046
1.0960312499999998,50.330672152898046
1.1040312499999998,46.60427572237918
1.1120312499999998,43.42876232634939
1.1200312499999998,44.8394596463106
1.1280312499999998,52.28946249213134
1.1360312499999998,57.0250662404304
1.1440312499999998,57.21092734585804
1.1520312499999998,53.330797446685246
1.1600312499999998,47.918763162567274
1.1680312499999999,45.407972720677485
1.1760312499999999,43.33155244951431
1.1840312499999999,42.97314278661331
1.1920312499999997,48.976881244034196
1.2000312499999997,56.81153082669735
1.2080312499999997,62.585714133364206
1.2160312499999997,65.31241125932837
1.2240312499999997,65.50008380947419
1.2320312499999997,66.23116408097397
1.2400312499999997,68.52514524566621
1.2480312499999997,70.2418476016449
1.2560312499999997,70.83545928689962
1.2640312499999997,71.01713389565694
1.2720312499999997,71.18751395714595
1.2800312499999997,70.04118604084032
1.2880312499999997,67.06606330365034
1.2960312499999997,64.63978753072513
1.3040312499999998,63.678919700803
1.3120312499999998,61.833544340723336
1.3200312499999998,59.782667205837676
1.3280312499999998,62.28871381505512
1.3360312499999998,65.17484735026828
1.3440312499999998,69.2538072489294
1.3520312499999998,73.11673598585514
1.3600312499999998,74.86865782417613
1.3680312499999998,75.05958589151797
1.3760312499999998,74.99504403719
1.3840312499999998,74.92057325589433
1.3920312499999998,74.55627465000734
1.4000312499999998,73.85156317920992
1.4080312499999998,73.2414380650809
1.4160312499999999,72.91194387848924
1.4240312499999999,72.49575404551162
1.4320312499999999,71.65105394118264
1.4400312499999997,69.78092172333172
1.4480312499999997,67.06069238408672
1.4560312499999997,64.50743397497179
1.4640312499999997,62.878347948950825
1.4720312499999997,61.5831845807105
1.4800312499999997,60.026005696849126
1.4880312499999997,58.243185676783625
1.4960312499999997,58.66784838761827
1.5040312499999997,62.53723681222654
1.5120312499999997,66.79769280287536
1.5200312499999997,70.07663733761846
1.5280312499999997,72.04814925022626
1.5360312499999997,72.91413083524525
1.5440312499999997,73.20730331261123
1.5520312499999998,73.26160378591399
1.5600312499999998,72.72850698743414
1.5680312499999998,71.55115569995047
1.5760312499999998,70.53757648984546
1.5840312499999998,70.24062065338248
1.5920312499999998,70.1922188343308
1.6000312499999998,70.42966929654173
1.6080312499999998,70.7758150020393
1.6160312499999998,70.85843894233673
1.6240312499999998,70.81260783188068
1.6320312499999998,71.05491340940053
1.6400312499999998,71.26020386829731
1.6480312499999998,70.81267858018305
1.6560312499999998,70.08818514937661
1.6640312499999999,69.89352600033511
1.6720312499999999,70.32427618755499
1.6800312499999999,70.92115005508431
1.6880312499999999,71.34713124591998
1.6960312499999999,71.49778441427452
1.7040312499999997,71.13063066432815
1.7120312499999997,69.92020210687734
1.7200312499999997,68.00766021542408
1.7280312499999997,66.17329888058495
1.7360312499999997,64.88289553826593
1.7440312499999997,64.20272315488656
1.7520312499999997,64.14928743987393
1.7600312499999997,64.37805541711332
1.7680312499999997,65.51864257825812
1.7760312499999997,66.54149059074744
1.7840312499999997,66.02443227268853
1.7920312499999997,64.5048766860499
1.8000312499999997,63.34357626359542
1.8080312499999998,63.39764459823052
1.8160312499999998,63.31920923554464
1.8240312499999998,62.90077031727678
1.8320312499999998,62.874156691114536
1.8400312499999998,63.3750313169698
1.8480312499999998,64.38131295132962
1.8560312499999998,65.43681249183257
1.8640312499999998,66.1872187487896
1.8720312499999998,66.65791182434783
1.8800312499999998,66.80273568971299
1.8880312499999998,66.44143870773897
1.8960312499999998,66.08231928462263
1.9040312499999998,66.19066206570126
1.9120312499999998,67.0223346078882
1.9200312499999999,67.94585995466893
1.9280312499999999,68.68446807779304
1.9360312499999999,69.54019495661349
1.9440312499999999,69.98055223042557
1.9520312499999997,70.11374507249974
1.9600312499999997,71.17483858511656
1.9680312499999997,72.41484083629719
1.9760312499999997,73.33557412968078
1.9840312499999997,74.16317609301768
1.9920312499999997,74.96505059107177
2.0000312499999997,75.99595338516332
2.0080312499999997,76.59185322957558
2.0160312499999997,76.68234308685562
2.0240312499999997,76.44474747253626
2.0320312499999997,75.9480996219184
2.0400312499999997,75.22802599969567
2.0480312499999997,74.50944096848704
2.0560312499999998,73.8299921146016
2.0640312499999998,73.04550811411171
2.0720312499999998,72.16437664088798
2.0800312499999998,71.04935740798612
2.08803125,69.52044459404864
2.09603125,67.43278039088875
2.10403125,64.84393562712174
2.11203125,62.20083355402838
2.12003125,60.452411582720615
2.12803125,60.12047930770211
2.13603125,60.2458794010692
2.14403125,60.20611100843132
2.15203125,60.264243801103675
2.16003125,60.642139303790366
2.16803125,60.866814144658704
2.17603125,60.12006848904025
2.18403125,58.07898825601016
2.19203125,54.717798731866985
2.20003125,50.40203326955534
2.20803125,46.2215208713916
2.21603125,43.387186864552945
2.22403125,43.05224034906654
2.23203125,43.33027165771484
2.24003125,43.08903929174852
2.24803125,42.9374354939751
2.25603125,42.76077876701551
2.26403125,42.20549922094126
2.27203125,41.950448647865244
2.28003125,42.94024810325168
2.28803125,43.436729288534856
2.29603125,41.901870020006456
2.30403125,39.1791545055759
2.31203125,36.70435469609515
2.32003125,33.775497392492525
2.32803125,30.45936654424239
2.33603125,29.505146974448685
2.3440312499999996,31.31052049612616
2.3520312499999996,32.73704984736062
2.3600312499999996,33.467405721078265
2.3680312499999996,35.73581639908614
2.3760312499999996,37.67955410476626
2.3840312499999996,37.7232692428381
2.3920312499999996,37.95085681161083
2.4000312499999996,39.02114310591258
2.4080312499999996,39.635052369612076
2.4160312499999996,40.15082578675876
2.4240312499999996,40.66522006993402
2.4320312499999996,41.28471073364526
2.4400312499999997,41.38965316207493
2.4480312499999997,41.8516297504228
2.4560312499999997,42.97739324785585
2.4640312499999997,43.69339275196307
2.4720312499999997,43.208615125507606
2.4800312499999997,42.492248593739774
2.4880312499999997,41.97254533736767
2.4960312499999997,41.63749249166241
2.5040312499999997,41.718839326140404
2.5120312499999997,41.44702532761963
2.5200312499999997,41.10326717062536
2.5280312499999997,41.055904258426004
2.5360312499999997,40.73559238262437
2.5440312499999997,40.57916157016094
2.5520312499999998,40.67915802621325
2.5600312499999998,40.437007873003836
2.5680312499999998,40.22967883883081
2.5760312499999998,40.469085002514035
2.58403125,40.06358583480954
2.59203125,39.13666015073826
2.60003125,39.149991645434554
2.60803125,38.91926563061904
2.61603125,38.426492458307195
2.62403125,40.161129246297975
2.63203125,41.07029791522649
2.64003125,39.880003923566704
2.64803125,41.07915295275322
2.65603125,42.48550236400903
2.66403125,41.47009229579288
2.67203125,41.62984565930848
2.68003125,43.50519211138887
2.68803125,42.82988990243656
2.69603125,40.601236943502315
2.70403125,42.59095923711122
2.71203125,43.19751228863296
2.72003125,40.46974081240164
2.72803125,39.55772895024013
2.73603125,41.59941752636517
2.74403125,40.02262179502759
2.75203125,38.30260481144213
2.76003125,41.318596701618844
2.76803125,39.502236345109914
2.77603125,46.46826399405825
2.78403125,56.83050249090932
2.79203125,63.01985716859103
2.80003125,66.2299974271262
2.80803125,67.84192609849912
2.81603125,68.34436559199261
2.82403125,68.18492489106842
2.83203125,68.31587128462364
2.84003125,68.88958355172564
2.8480312499999996,69.34026445645449
2.8560312499999996,69.72962241525833
2.8640312499999996,69.93308203792657
2.8720312499999996,70.85134158472508
2.8800312499999996,73.65163385058733
2.8880312499999996,76.00279590963676
2.8960312499999996,76.7578462512654
2.9040312499999996,75.74466617712595
2.9120312499999996,74.17470865572268
2.9200312499999996,72.56209932908601
2.9280312499999996,69.53508748586674
2.9360312499999996,65.80216416512602
2.9440312499999997,63.626855829735796
2.9520312499999997,61.89326402035639
2.9600312499999997,59.33283417442568
2.9680312499999997,55.65950944878992
2.9760312499999997,51.110120679716545
2.9840312499999997,47.506800029717056
2.9920312499999997,44.79578520700581
3.0000312499999997,43.39161247856879
3.0080312499999997,46.488242752387976
3.0160312499999997,52.36780189585902
3.0240312499999997,56.327589633818576
3.0320312499999997,60.0897894365897
3.0400312499999997,63.16782868839346
3.0480312499999997,64.19046927989638
3.0560312499999998,63.77455668510354
3.0640312499999998,62.53121808149593
3.0720312499999998,61.18584963704306
3.0800312499999998,60.88208664040771
3.08803125,60.855861726472654
3.09603125,60.47493592331299
3.10403125,59.59558171537448
3.11203125,57.92775622250537
3.12003125,55.082093145532234
3.12803125,51.04511680448094
3.13603125,46.340510952140335
3.14403125,43.714710823369636
3.15203125,47.127800579098455
3.16003125,52.20860944577847
3.16803125,55.822788148585246
3.17603125,58.038216230680675
3.18403125,58.96411610076268
3.19203125,59.215938659603125
3.20003125,59.61579325428221
3.20803125,61.71471622023987
3.21603125,65.1580154940296
3.22403125,67.36353233107559
3.23203125,68.06973831293514
3.24003125,67.32011130648787
3.24803125,64.92554468385686
3.25603125,61.76660686100167
3.26403125,60.82817535694527
3.27203125,61.238118573226316
3.28003125,60.874046450401394
3.28803125,60.49217855322922
3.29603125,60.12204767607638
3.30403125,58.98683381621754
3.31203125,57.76399643874447
3.32003125,57.903893349435535
3.32803125,58.775379402239494
3.33603125,59.92083887848242
3.34403125,61.47984940509315
3.35203125,62.87542117289243
3.36003125,64.00809078228806
3.3680312499999996,65.38739055118779
3.3760312499999996,67.13318185426438
3.3840312499999996,69.12211876554514
3.3920312499999996,71.09966951305128
3.4000312499999996,72.83470991198378
3.4080312499999996,74.08245518673095
3.4160312499999996,74.83580026030923
3.4240312499999996,75.50943349009715
3.4320312499999996,76.50323467361767
3.4400312499999997,77.52680527253717
3.4480312499999997,78.1003600086342
3.4560312499999997,78.21781353222467
3.4640312499999997,77.57362033815605
3.4720312499999997,76.77559419918671
3.4800312499999997,77.12201044275405
3.4880312499999997,77.6704908233517
3.4960312499999997,77.7422738089311
3.5040312499999997,77.42527700465344
3.5120312499999997,76.51670882986875
3.5200312499999997,74.80523597465861
3.5280312499999997,71.99730417625257
3.5360312499999997,68.46535941691296
3.5440312499999997,64.92772220456246
3.5520312499999998,61.91844196971101
3.5600312499999998,59.6108780159559
3.5680312499999998,56.97834130432477
3.5760312499999998,53.63573759409395
3.58403125,51.16619644137741
3.59203125,50.09910225713891
3.60003125,48.789211146816136
3.60803125,47.61891336868718
3.61603125,47.21584889179198
3.62403125,47.73024121972557
3.63203125,48.403643592125896
3.64003125,48.084047118966744
3.64803125,47.6296587126439
3.65603125,54.24741984069853
3.66403125,61.99904010580795
3.67203125,67.19063177697026
3.68003125,70.1153051437388
3.68803125,71.3852485261012
3.69603125,71.8721793107605
3.70403125,72.03896804969942
3.71203125,71.84379435880848
3.72003125,71.54269946753429
3.72803125,71.28365087603954
3.73603125,70.86859494158038
3.74403125,70.40434774305166
3.75203125,69.8646400491985
3.76003125,69.1210049515901
3.76803125,68.3120401068879
3.77603125,67.19448276644786
3.78403125,65.32831994225488
3.79203125,63.35528723608786
3.80003125,62.22450249589315
3.80803125,61.68829304465041
3.81603125,61.46702134735846
3.82403125,61.53452490546644
3.83203125,61.621653216055066
3.84003125,61.0072788219817
3.84803125,59.52067254772736
3.85603125,57.01318181847414
3.86403125,54.014144803281354
3.8720312499999996,52.06330204047859
3.8800312499999996,50.913931466897935
3.8880312499999996,50.163405686759134
3.8960312499999996,50.13093867753267
3.9040312499999996,49.7235027251233
3.9120312499999996,48.80353574537289
3.9200312499999996,48.874062972800985
3.9280312499999996,49.55001884317958
3.9360312499999996,55.16487108378882
3.9440312499999997,62.131003729317094
3.9520312499999997,66.75753257654951
3.9600312499999997,69.16382929669038
3.9680312499999997,69.95530550616878
3.9760312499999997,69.95706400109214
3.9840312499999997,69.95116612872079
3.9920312499999997,69.78025327836072
4.000031249999999,68.86933407198129
4.00803125,67.21559109330245
4.016031249999999,65.25599814939375
4.02403125,63.769560433768966
4.032031249999999,63.26055901366225
4.04003125,63.08001931441126
4.048031249999999,62.965655487202916
4.05603125,62.760895872667774
4.064031249999999,62.2433108829238
4.07203125,61.13989050578489
4.080031249999999,58.845313865169196
4.08803125,55.20900092283818
4.096031249999999,54.127996742823754
4.10403125,56.98228694340863
4.112031249999999,57.86940200649158
4.12003125,57.7149591782981
4.128031249999999,59.20618270360022
4.13603125,60.620313606003464
4.144031249999999,60.958214195436724
4.15203125,61.02183676476052
4.160031249999999,61.71976908707998
4.16803125,63.84738508236894
4.176031249999999,66.7749583118585
4.18403125,68.85895281945582
4.192031249999999,69.55185635870018
4.20003125,69.38094866264822
4.2080312499999994,68.96614413415895
4.21603125,68.0066105786039
4.2240312499999995,66.04623812774867
4.23203125,63.89373142576717
4.2400312499999995,63.040714129241294
4.24803125,62.84627927491756
4.2560312499999995,62.823185469070665
4.26403125,62.813671183145246
4.2720312499999995,62.568038734225
4.28003125,62.19853320501939
4.2880312499999995,61.42837893159914
4.29603125,59.50559197239328
4.3040312499999995,56.2817906917367
4.31203125,52.354388559123954
4.3200312499999995,49.28474125787915
4.32803125,48.09511204609472
4.33603125,47.90780793000458
4.3440312500000005,53.116042226793994
4.35203125,61.29428849583292
4.3600312500000005,66.99426254406326
4.36803125,70.32101190276344
4.3760312500000005,72.11289342968529
4.38403125,73.32259311885073
4.3920312500000005,74.0453466134179
4.40003125,73.76560733435787
4.4080312500000005,72.04911124557361
4.41603125,68.79585494464544
4.4240312500000005,64.87656997032002
4.43203125,61.71281434293695
4.4400312500000005,59.287093077071574
4.44803125,56.373302049745476
4.4560312500000006,52.27933768344204
4.46403125,47.79654925612828
4.472031250000001,45.84071557105084
4.48003125,45.82668395753597
4.488031250000001,44.959396840300954
4.49603125,43.27354057326652
4.504031250000001,42.59318086396416
4.51203125,41.80175364488136
4.520031250000001,42.043981759425876
4.52803125,43.40544527403786
4.536031250000001,43.10314394551045
4.54403125,41.57464278805718
4.552031250000001,40.68060985396301
4.56003125,40.29386110605387
4.568031250000001,39.12671804369084
4.57603125,44.487614098555454
4.584031250000001,52.18403245733107
4.59203125,56.5008530604499
4.600031250000001,58.0831104159345
4.60803125,57.94152291431259
4.616031250000001,56.80871956878035
4.62403125,55.755484556388566
4.632031250000001,54.1404237922479
