time,intensity
0.032031249999999734,73.50008208004563
0.040031249999999734,73.47781502219532
0.048031249999999734,73.48514703616006
0.056031249999999734,73.50580671395602
0.06403124999999973,73.51096890463283
0.07203124999999974,73.4292491700777
0.08003124999999973,73.31645784975952
0.08803124999999973,73.19656180201072
0.09603124999999973,73.06778098228428
0.10403124999999974,73.02019625322103
0.11203124999999974,73.048360311746
0.12003124999999973,73.06948078810171
0.12803124999999974,73.11527025530378
0.13603124999999974,73.18940486483268
0.14403124999999972,73.2549218272441
0.15203124999999973,73.3552655393174
0.16003124999999974,73.42875624525266
0.16803124999999974,73.40037195069831
0.17603124999999975,73.27110395278348
0.18403124999999973,73.00055621002268
0.19203124999999974,72.69073888252215
0.20003124999999974,72.51859089513314
0.20803124999999972,72.44629182794583
0.21603124999999973,72.35958778172355
0.22403124999999974,72.15774252034711
0.23203124999999974,71.86778081770484
0.24003124999999975,71.39423680979519
0.24803124999999973,70.67776068726224
0.2560312499999997,69.89651197820982
0.2640312499999997,69.33370407269172
0.2720312499999997,68.98388529309187
0.28003124999999973,68.27048343421497
0.28803124999999974,66.76936580680851
0.29603124999999975,64.83288021021676
0.30403124999999975,63.41826196197373
0.31203124999999976,63.23725148928019
0.32003124999999977,62.992165605183494
0.3280312499999997,61.62844919644429
0.3360312499999997,59.2953553649418
0.34403124999999973,58.995671503976645
0.35203124999999974,58.045415066007884
0.36003124999999975,52.76192515581704
0.36803124999999975,43.689998180572644
0.37603124999999976,37.61564496272506
0.3840312499999997,35.111842740658595
0.3920312499999997,33.80033002505308
0.4000312499999997,43.691449156371256
0.40803124999999973,55.91880568421665
0.41603124999999974,62.755659952655954
0.42403124999999975,66.87952969796302
0.43203124999999976,70.04854752350438
0.44003124999999976,72.42380501592461
0.44803124999999977,74.1228257736935
0.4560312499999997,74.89660612888879
0.46403124999999973,74.9005371361377
0.47203124999999974,74.85404965556535
0.48003124999999974,74.66256946677456
0.48803124999999975,74.51930345847973
0.49603124999999976,74.7245748826723
0.5040312499999997,74.83947573729324
0.5120312499999997,74.37548708510505
0.5200312499999997,73.32325971963438
0.5280312499999997,71.86997958771671
0.5360312499999997,69.97581764688954
0.5440312499999997,68.3589562207035
0.5520312499999998,67.3691368418902
0.5600312499999998,66.32338792210335
0.5680312499999998,65.68002953857578
0.5760312499999998,65.94284454353875
0.5840312499999998,66.9252348611211
0.5920312499999998,68.34897142271413
0.6000312499999998,69.83858993881
0.6080312499999998,70.90690411198277
0.6160312499999997,71.24957631139506
0.6240312499999997,70.71834767256408
0.6320312499999997,68.90932044748162
0.6400312499999997,66.04776151139377
0.6480312499999997,64.04135465473217
0.6560312499999997,63.02254523970149
0.6640312499999997,64.04400845741293
0.6720312499999997,66.08766927006675
0.6800312499999998,67.09893014272672
0.6880312499999998,67.54449506850095
0.6960312499999998,67.76363695353753
0.7040312499999998,67.64445093567649
0.7120312499999998,67.25773759440848
0.7200312499999998,67.10307034450517
0.7280312499999998,68.55817540015127
0.7360312499999997,71.08668653870103
0.7440312499999997,72.4138506707017
0.7520312499999997,72.40183066769823
0.7600312499999997,72.07205281943581
0.7680312499999997,72.20893529471957
0.7760312499999997,72.50730909342548
0.7840312499999997,72.40810657913153
0.7920312499999997,71.68112999475335
0.8000312499999997,70.27599043368961
0.8080312499999998,68.09692426633917
0.8160312499999998,64.73441799028537
0.8240312499999998,59.92692458006925
0.8320312499999998,55.01850196037114
0.8400312499999998,52.961230309862664
0.8480312499999998,51.3433774932509
0.8560312499999998,50.06003458467128
0.8640312499999998,51.53878610628211
0.8720312499999997,56.089237334265775
0.8800312499999997,60.40277926250759
0.8880312499999997,63.05614326534674
0.8960312499999997,64.62371806282862
0.9040312499999997,65.57100742306503
0.9120312499999997,65.77088031206
0.9200312499999997,65.46622759910113
0.9280312499999998,65.49129212863612
0.9360312499999998,65.68877593162067
0.9440312499999998,65.60335001974853
0.9520312499999998,65.51073790383182
0.9600312499999998,65.56661673105
0.9680312499999998,65.67369317670199
0.9760312499999998,65.74013005276383
0.9840312499999998,65.63865763538469
0.9920312499999997,65.1931525547556
1.0000312499999997,64.40995519330951
1.0080312499999997,63.394696680857464
1.0160312499999997,62.141199550523744
1.0240312499999997,61.55188552823293
1.0320312499999997,65.60469973013768
1.0400312499999997,70.13361196938199
1.0480312499999997,72.79540734045253
1.0560312499999998,74.47928100713648
1.0640312499999998,75.48641135496165
1.0720312499999998,75.85990102120302
1.0800312499999998,75.82120538515225
1.0880312499999998,75.30308778747766
1.0960312499999998,74.09135347772859
1.1040312499999998,72.50682701052385
1.1120312499999998,71.10071251624305
1.1200312499999998,69.79780676915672
1.1280312499999998,68.8108211264222
1.1360312499999998,67.85579140125151
1.1440312499999998,65.26797578645282
1.1520312499999998,60.400745354042286
1.1600312499999998,55.389133574712865
1.1680312499999999,53.09146486609728
1.1760312499999999,52.580474412440275
1.1840312499999999,52.774956588826925
1.1920312499999997,52.83787855244793
1.2000312499999997,52.3112481489173
1.2080312499999997,51.708152216024494
1.2160312499999997,50.420942487294795
1.2240312499999997,47.65320519406406
1.2320312499999997,46.092768070559785
1.2400312499999997,43.77309101279299
1.2480312499999997,43.064923981620275
1.2560312499999997,46.791916369432236
1.2640312499999997,49.474453018960595
1.2720312499999997,52.47858575346645
1.2800312499999997,55.36181133170678
1.2880312499999997,57.51864865912681
1.2960312499999997,58.600632186928586
1.3040312499999998,58.94706079152395
1.3120312499999998,58.76862576954138
1.3200312499999998,58.19553895970987
1.3280312499999998,57.389400957886494
1.3360312499999998,56.19504019816787
1.3440312499999998,57.12163866946506
1.3520312499999998,64.37249672222703
1.3600312499999998,70.37538215425731
1.3680312499999998,73.54878000354253
1.3760312499999998,74.55424563306842
1.3840312499999998,74.7017422757661
1.3920312499999998,74.89805052260584
1.4000312499999998,75.03778121302345
1.4080312499999998,75.08127333836926
1.4160312499999999,75.02656292014146
1.4240312499999999,74.80956065323353
1.4320312499999999,74.3309540672214
1.4400312499999997,73.19284719413285
1.4480312499999997,70.59018422385955
1.4560312499999997,65.69491806028435
1.4640312499999997,58.87080574769068
1.4720312499999997,53.33774907766562
1.4800312499999997,49.292654185917314
1.4880312499999997,45.383521597857666
1.4960312499999997,42.26907386242472
1.5040312499999997,40.06811414811662
1.5120312499999997,38.94567924126133
1.5200312499999997,41.002930516609794
1.5280312499999997,51.372271732273575
1.5360312499999997,61.38129608450062
1.5440312499999997,67.57284144755972
1.5520312499999998,70.5045946335261
1.5600312499999998,71.35846987455781
1.5680312499999998,71.28910397285522
1.5760312499999998,70.95298513826411
1.5840312499999998,70.55710812138568
1.5920312499999998,69.94267498469073
1.6000312499999998,69.29204609087395
1.6080312499999998,69.09342336493748
1.6160312499999998,69.07481892649862
1.6240312499999998,68.77550178088049
1.6320312499999998,68.13631519533386
1.6400312499999998,67.06741004179311
1.6480312499999998,65.34338207868068
1.6560312499999998,63.41392278050204
1.6640312499999999,62.51185551228103
1.6720312499999999,62.28185791514583
1.6800312499999999,61.55053889030435
1.6880312499999999,59.95346617576172
1.6960312499999999,57.39526594087042
1.7040312499999997,54.608125005986835
1.7120312499999997,54.51335193190925
1.7200312499999997,54.99438176846749
1.7280312499999997,54.52993762041445
1.7360312499999997,54.49941659945618
1.7440312499999997,54.66684142852871
1.7520312499999997,55.24106833600986
1.7600312499999997,54.6712946368697
1.7680312499999997,52.55120166495647
1.7760312499999997,54.722831621650705
1.7840312499999997,62.27806949243317
1.7920312499999997,67.23874780463375
1.8000312499999997,69.63428315240861
1.8080312499999998,70.4277240535778
1.8160312499999998,70.63803795353279
1.8240312499999998,70.8673319507349
1.8320312499999998,71.18516884550348
1.8400312499999998,71.54867682764072
1.8480312499999998,72.06918174178372
1.8560312499999998,72.7230998104005
1.8640312499999998,72.9020437030024
1.8720312499999998,71.50569327146273
1.8800312499999998,67.49151978447982
1.8880312499999998,61.838358246048564
1.8960312499999998,61.084860251763516
1.9040312499999998,63.01021229849488
1.9120312499999998,64.8590437005712
1.9200312499999999,66.17394501395536
1.9280312499999999,66.59350502250525
1.9360312499999999,66.29796135145695
1.9440312499999999,65.92795249752791
1.9520312499999997,65.94307580893724
1.9600312499999997,66.17648022619676
1.9680312499999997,66.00554023596332
1.9760312499999997,66.01947221930772
1.9840312499999997,66.71976735785684
1.9920312499999997,67.26781865398118
2.0000312499999997,67.61891068708685
2.0080312499999997,67.857376358021
2.0160312499999997,67.76373838340668
2.0240312499999997,67.58839948833614
2.0320312499999997,67.88318777539348
2.0400312499999997,68.20362525462954
2.0480312499999997,67.801703064589
2.0560312499999998,66.88370259532786
2.0640312499999998,66.18956497870559
2.0720312499999998,65.8164622934035
2.0800312499999998,65.50441971955394
2.08803125,65.30434633742254
2.09603125,65.27625359648327
2.10403125,65.48278580074084
2.11203125,65.98560168081336
2.12003125,66.48625838757236
2.12803125,66.63981144815983
2.13603125,66.52852451114907
2.14403125,66.71927346118503
2.15203125,66.88927389557024
2.16003125,65.95322851669238
2.16803125,64.8819585648478
2.17603125,64.91146289854005
2.18403125,65.22686056978729
2.19203125,66.02432246951396
2.20003125,67.20643579972642
2.20803125,68.16625191814795
2.21603125,68.57560014272106
2.22403125,68.23273822028307
2.23203125,66.7391390844563
2.24003125,63.78691037208079
2.24803125,60.27263376127684
2.25603125,58.962894680758716
2.26403125,60.453525402426116
2.27203125,63.35481491843727
2.28003125,65.20117600319215
2.28803125,64.93109901325936
2.29603125,62.81082845578063
2.30403125,59.780622613694746
2.31203125,56.46647544943437
2.32003125,52.35263794750378
2.32803125,47.56503231177525
2.33603125,42.30202279111453
2.3440312499999996,38.931910471305294
2.3520312499999996,37.055011849614125
2.3600312499999996,36.48502974712515
2.3680312499999996,40.99631152886233
2.3760312499999996,46.834423052724915
2.3840312499999996,52.160146038657246
2.3920312499999996,55.45880524323742
2.4000312499999996,56.42892681785752
2.4080312499999996,56.26508454331545
2.4160312499999996,60.08285262349236
2.4240312499999996,66.08076661705707
2.4320312499999996,69.85965629392047
2.4400312499999997,72.40390141192096
2.4480312499999997,74.02747507441754
2.4560312499999997,73.79074923387341
2.4640312499999997,71.63945620753644
2.4720312499999997,70.03969542443633
2.4800312499999997,70.39733055277263
2.4880312499999997,71.60190063617091
2.4960312499999997,72.67986095289787
2.5040312499999997,72.34078860903014
2.5120312499999997,69.62718674023526
2.5200312499999997,64.19977768055708
2.5280312499999997,57.59058198987801
2.5360312499999997,53.5373165581825
2.5440312499999997,51.97236960809836
2.5520312499999998,54.73939398317114
2.5600312499999998,57.63423063338155
2.5680312499999998,58.58725235126758
2.5760312499999998,62.291421745949975
2.58403125,67.05523156768325
2.59203125,69.35112618133003
2.60003125,69.34921970458863
2.60803125,67.16666636838808
2.61603125,62.60540807776742
2.62403125,56.65327930578979
2.63203125,51.148888690609134
2.64003125,45.8613676145188
2.64803125,43.21293438762599
2.65603125,42.53470692924223
2.66403125,41.90060099182736
2.67203125,43.6565009306107
2.68003125,46.9973440689901
2.68803125,48.6889827805068
2.69603125,55.91292732130065
2.70403125,62.96204296108427
2.71203125,66.39620634086361
2.72003125,67.60064261772986
2.72803125,68.04024599205232
2.73603125,67.84229217932533
2.74403125,66.07520491554608
2.75203125,62.28107780651419
2.76003125,58.48364661326657
2.76803125,55.8181704452746
2.77603125,55.30746479112708
2.78403125,60.407349917083934
2.79203125,64.81255746973875
2.80003125,67.44873212250607
2.80803125,68.88448663005445
2.81603125,69.47387513360165
2.82403125,69.70050593576953
2.83203125,69.97948024543203
2.84003125,70.0400989994049
2.8480312499999996,68.82723795466458
2.8560312499999996,66.16165266234754
2.8640312499999996,64.26579712300337
2.8720312499999996,64.11101121894869
2.8800312499999996,64.22382717338672
2.8880312499999996,64.17933562936862
2.8960312499999996,64.08891716976576
2.9040312499999996,64.45328966440181
2.9120312499999996,64.92320310019045
2.9200312499999996,65.24488601458314
2.9280312499999996,65.5256074236978
2.9360312499999996,65.73713049986647
2.9440312499999997,66.15032896578198
2.9520312499999997,67.30425499657214
2.9600312499999997,69.59184094648346
2.9680312499999997,71.69763256113757
2.9760312499999997,73.02624596438079
2.9840312499999997,73.80412797413037
2.9920312499999997,74.05587623809953
3.0000312499999997,73.84478505793115
3.0080312499999997,73.39478272039338
3.0160312499999997,72.93076812467581
3.0240312499999997,72.28529495067556
3.0320312499999997,70.96713125928339
3.0400312499999997,68.5146706535758
3.0480312499999997,66.22750628902926
3.0560312499999998,65.65051727740078
3.0640312499999998,65.68867644091851
3.0720312499999998,65.76720572553839
3.0800312499999998,65.7402416987472
3.08803125,65.69009507032067
3.09603125,65.55660349037483
3.10403125,65.31808517986632
3.11203125,65.0348656519471
3.12003125,64.69988094727098
3.12803125,64.2233758235526
3.13603125,63.5620185440899
3.14403125,62.78904686372287
3.15203125,61.86398517961946
3.16003125,60.60865740646268
3.16803125,61.02833785422965
3.17603125,67.06577130562334
3.18403125,72.36017513036911
3.19203125,74.94561440974994
3.20003125,75.41652412618222
3.20803125,74.728786206336
3.21603125,74.0024241468553
3.22403125,73.63719111415564
3.23203125,73.37752336969663
3.24003125,73.17933540399193
3.24803125,73.11314903791413
3.25603125,73.11811340371369
3.26403125,73.18344475018189
3.27203125,73.24291566147951
3.28003125,73.16318785487726
3.28803125,72.88731416166266
3.29603125,72.64240954461332
3.30403125,72.53020774318841
3.31203125,72.44863769155265
3.32003125,72.45167612029724
3.32803125,72.63474150541565
3.33603125,72.82185533200129
3.34403125,72.58935928323842
3.35203125,71.29935538193514
3.36003125,68.5337603317876
3.3680312499999996,64.6469651283745
3.3760312499999996,60.70717560960556
3.3840312499999996,58.07391067804522
3.3920312499999996,57.02453958668627
3.4000312499999996,56.43198167895578
3.4080312499999996,56.88006855138792
3.4160312499999996,57.834026108135376
3.4240312499999996,58.74634786760982
3.4320312499999996,61.17751604833992
3.4400312499999997,64.25667377858954
3.4480312499999997,66.57545654067731
3.4560312499999997,68.19624638180395
3.4640312499999997,69.2064789201489
3.4720312499999997,69.08659436428556
3.4800312499999997,67.43611921979955
3.4880312499999997,65.08885233983
3.4960312499999997,63.74479209583522
3.5040312499999997,63.1456777572801
3.5120312499999997,63.13867562808869
3.5200312499999997,64.43412122062804
3.5280312499999997,65.77681400849171
3.5360312499999997,66.4381270696762
3.5440312499999997,66.84029205820633
3.5520312499999998,67.0368002102582
3.5600312499999998,67.01645224428833
3.5680312499999998,66.81430306218238
3.5760312499999998,66.56151194669252
3.58403125,66.42749693741395
3.59203125,65.9978894657816
3.60003125,64.7999074021661
3.60803125,62.744086319488076
3.61603125,60.18152237296376
3.62403125,56.6271993267134
3.63203125,51.55071989475533
3.64003125,46.28312689704019
3.64803125,42.737187407268884
3.65603125,40.284724668715974
3.66403125,38.38465993839354
3.67203125,36.00979976084726
3.68003125,35.21119828146815
3.68803125,38.29814548620704
3.69603125,39.90106275624182
3.70403125,37.60734484601015
3.71203125,34.82223219272906
3.72003125,36.52315800479392
3.72803125,38.27737333038334
3.73603125,39.2344938521558
3.74403125,39.6782023947493
3.75203125,40.32617527638247
3.76003125,41.1002218969264
3.76803125,41.80112900817149
3.77603125,42.623751014843876
3.78403125,42.90573711736371
3.79203125,43.18500550220567
3.80003125,43.9529250121021
3.80803125,44.91845303587408
3.81603125,47.75131539965792
3.82403125,50.483274132722975
3.83203125,51.06247661503141
3.84003125,50.379131968291034
3.84803125,48.43528142916775
3.85603125,46.41166224907276
3.86403125,44.86860225199494
3.8720312499999996,42.83794791994459
3.8800312499999996,41.77392052647
3.8880312499999996,42.19812730941435
3.8960312499999996,42.043785701046545
3.9040312499999996,40.579532877589905
3.9120312499999996,38.95365213614333
3.9200312499999996,37.43969011829605
3.9280312499999996,35.87340860797265
3.9360312499999996,34.5824907594579
3.9440312499999997,34.359672847366916
3.9520312499999997,34.77501463203915
3.9600312499999997,35.182140374148226
3.9680312499999997,34.739616275471526
3.9760312499999997,33.46843777339109
3.9840312499999997,31.972775152414794
3.9920312499999997,33.286951339749336
4.000031249999999,36.143288074152125
4.00803125,36.342402069595146
4.016031249999999,33.95145112220749
4.02403125,34.216181843267385
4.032031249999999,37.47531949736326
4.04003125,40.00452570766198
4.048031249999999,41.57268911848839
4.05603125,43.99691542502808
4.064031249999999,46.1891677123544
4.07203125,47.203317658790276
4.080031249999999,47.651967662360605
4.08803125,48.092145733642724
4.096031249999999,56.332696184078934
4.10403125,65.38137849752178
4.112031249999999,70.40595432142797
4.12003125,73.06874711612514
4.128031249999999,74.79794045421701
4.13603125,75.58545068799637
4.144031249999999,75.48056560373861
4.15203125,75.16819675403792
4.160031249999999,75.17142459545587
4.16803125,75.34887520621082
4.176031249999999,75.42597174808884
4.18403125,75.42257087146473
4.192031249999999,75.41307900322971
4.20003125,75.26727619893549
4.2080312499999994,74.98887047374463
4.21603125,74.89520805761161
4.2240312499999995,75.14676536080331
4.23203125,75.07326167013608
4.2400312499999995,74.16001235738085
4.24803125,72.83614981239987
4.2560312499999995,71.62144044054385
4.26403125,70.45474778982899
4.2720312499999995,69.29643502378451
4.28003125,68.29543109122946
4.2880312499999995,67.41926964043057
4.29603125,66.54439237384072
4.3040312499999995,65.83673467172233
4.31203125,66.0129947634933
4.3200312499999995,66.58647523048194
4.32803125,66.21696367691865
4.33603125,64.62388716950413
4.3440312500000005,62.87476650151711
4.35203125,61.280862946469696
4.3600312500000005,59.65216769734632
4.36803125,58.68484756144882
4.3760312500000005,58.480931947632556
4.38403125,58.4809306810799
4.3920312500000005,58.82816975818188
4.40003125,59.52497237574124
4.4080312500000005,59.8078065094008
4.41603125,59.83973478465484
4.4240312500000005,60.94993588746583
4.43203125,62.89094162495904
4.4400312500000005,64.80965853459564
4.44803125,66.21506685982851
4.4560312500000006,67.35188767093199
4.46403125,67.88091427083657
4.472031250000001,67.16126668403986
4.48003125,65.0977382454277
4.488031250000001,62.491602212809624
4.49603125,59.71219529243761
4.504031250000001,55.7093294097634
4.51203125,56.633874965187175
4.520031250000001,58.689693568808394
4.52803125,56.54039523885245
4.536031250000001,55.14847138113168
4.54403125,59.49027181102765
4.552031250000001,62.68489791184465
4.56003125,65.91319854003812
4.568031250000001,68.87585969383049
4.57603125,71.35683624760385
4.584031250000001,73.12346699167679
4.59203125,74.21417003752313
4.600031250000001,74.91882838323293
4.60803125,75.39161139235875
4.616031250000001,75.43477140240383
4.62403125,75.2295034149422
4.632031250000001,75.17725109665933
4.64003125,75.1533805546817
4.648031249999999,74.94607917277621
