time,intensity
0.032031249999999734,66.6936740583605
0.040031249999999734,65.91445045825675
0.048031249999999734,65.50603148437641
0.056031249999999734,66.24240177014137
0.06403124999999973,67.35997549647334
0.07203124999999974,67.93748557907833
0.08003124999999973,68.09948212448757
0.08803124999999973,67.73275597318958
0.09603124999999973,66.70232340419291
0.10403124999999974,64.83873285794692
0.11203124999999974,61.66162527530684
0.12003124999999973,59.535626673129215
0.12803124999999974,60.32291881793078
0.13603124999999974,61.52835018999062
0.14403124999999972,63.26362143114599
0.15203124999999973,65.50906229665925
0.16003124999999974,67.65197277303548
0.16803124999999974,69.19628026587324
0.17603124999999975,70.22811678640235
0.18403124999999973,70.92177639732762
0.19203124999999974,71.34958648918567
0.20003124999999974,71.55968166774599
0.20803124999999972,71.54349055753055
0.21603124999999973,70.90200824944493
0.22403124999999974,68.9728190937048
0.23203124999999974,65.83740732005666
0.24003124999999975,62.23738103573967
0.24803124999999973,59.28429576628976
0.2560312499999997,56.77723507012522
0.2640312499999997,54.19084622684365
0.2720312499999997,52.76548571154943
0.28003124999999973,52.91435455915515
0.28803124999999974,52.85252686696591
0.29603124999999975,52.45579819059064
0.30403124999999975,52.35304606602395
0.31203124999999976,52.534694468018984
0.32003124999999977,52.71837996097838
0.3280312499999997,52.347422362302616
0.3360312499999997,51.97779355335322
0.34403124999999973,53.10393266516235
0.35203124999999974,59.39778826111297
0.36003124999999975,66.13506117501768
0.36803124999999975,70.12949505162348
0.37603124999999976,72.27788663126906
0.3840312499999997,73.44860207753021
0.3920312499999997,74.17328630927642
0.4000312499999997,74.66736436422605
0.40803124999999973,74.83891766126693
0.41603124999999974,74.66914182968017
0.42403124999999975,74.30369353967963
0.43203124999999976,73.83260636082784
0.44003124999999976,73.13179217915236
0.44803124999999977,72.00673818869055
0.4560312499999997,70.33228758443529
0.46403124999999973,68.00513810863012
0.47203124999999974,65.32955985228536
0.48003124999999974,64.13538623473305
0.48803124999999975,65.43887986516052
0.49603124999999976,66.28895649384226
0.5040312499999997,65.14929620097222
0.5120312499999997,62.78573586977455
0.5200312499999997,60.57239957646101
0.5280312499999997,58.75594017863853
0.5360312499999997,57.18398971383395
0.5440312499999997,54.95515698227767
0.5520312499999998,53.05682719543134
0.5600312499999998,54.72349781992279
0.5680312499999998,58.56060856028145
0.5760312499999998,61.925310777963205
0.5840312499999998,62.96222818045038
0.5920312499999998,61.55322827841513
0.6000312499999998,58.82746856087448
0.6080312499999998,57.07911856572953
0.6160312499999997,55.38105939706509
0.6240312499999997,52.108877147010574
0.6320312499999997,51.719169103482216
0.6400312499999997,53.02137954848185
0.6480312499999997,52.03953245319085
0.6560312499999997,50.38207491997543
0.6640312499999997,50.071818568445025
0.6720312499999997,50.73601377151356
0.6800312499999998,52.5150505072738
0.6880312499999998,58.24899397775507
0.6960312499999998,63.7345893740769
0.7040312499999998,67.81316272954439
0.7120312499999998,70.7887414876478
0.7200312499999998,72.60130936194054
0.7280312499999998,73.44926911448331
0.7360312499999997,73.92548596141384
0.7440312499999997,74.20059977123529
0.7520312499999997,74.31366032128516
0.7600312499999997,74.30853635899749
0.7680312499999997,74.1612085800145
0.7760312499999997,74.07535847904997
0.7840312499999997,73.95888034976967
0.7920312499999997,73.7830449470553
0.8000312499999997,73.74674318634646
0.8080312499999998,73.87735697734352
0.8160312499999998,74.08946901300256
0.8240312499999998,74.20688170748366
0.8320312499999998,74.12689228776465
0.8400312499999998,73.93019799054323
0.8480312499999998,73.7447097934755
0.8560312499999998,73.57505427089588
0.8640312499999998,73.51337596527877
0.8720312499999997,73.53323896180046
0.8800312499999997,73.45987163139814
0.8880312499999997,73.35976200303986
0.8960312499999997,73.34156950849749
0.9040312499999997,73.23687538455846
0.9120312499999997,73.08439489943777
0.9200312499999997,72.98262851028026
0.9280312499999998,72.92824378844702
0.9360312499999998,72.81823940296701
0.9440312499999998,72.6095786190997
0.9520312499999998,72.36357124869326
0.9600312499999998,72.17263926699077
0.9680312499999998,72.03485236730866
0.9760312499999998,71.87977442851039
0.9840312499999998,71.77481438126718
0.9920312499999997,71.71789568858087
1.0000312499999997,71.39464731027816
1.0080312499999997,70.92199720985263
1.0160312499999997,70.5280503738805
1.0240312499999997,70.0166441994692
1.0320312499999997,69.54485015580401
1.0400312499999997,69.13205345399324
1.0480312499999997,68.45792917260633
1.0560312499999998,67.47949842870868
1.0640312499999998,66.34191979048106
1.0720312499999998,64.62994060411995
1.0800312499999998,61.72162423038513
1.0880312499999998,58.40487679437032
1.0960312499999998,56.333721906996374
1.1040312499999998,54.766311390299805
1.1120312499999998,53.31700246407565
1.1200312499999998,53.97508001924139
1.1280312499999998,55.46341077713468
1.1360312499999998,56.35951878423409
1.1440312499999998,56.95255513013017
1.1520312499999998,57.22062220694211
1.1600312499999998,57.02099778451513
1.1680312499999999,56.8782478325371
1.1760312499999999,60.08172382669949
1.1840312499999999,65.47957460864427
1.1920312499999997,68.90158189540334
1.2000312499999997,70.68968779363135
1.2080312499999997,71.51883424076067
1.2160312499999997,71.86398755032957
1.2240312499999997,72.16074385274912
1.2320312499999997,72.36362671997807
1.2400312499999997,72.41358946387354
1.2480312499999997,72.42890853074687
1.2560312499999997,72.35177435215017
1.2640312499999997,72.08601992612394
1.2720312499999997,71.28023042225568
1.2800312499999997,69.87720557757729
1.2880312499999997,67.86328054399102
1.2960312499999997,64.15132319772954
1.3040312499999998,59.01790400397339
1.3120312499999998,54.93640572624506
1.3200312499999998,52.94922819641903
1.3280312499999998,52.01210072653207
1.3360312499999998,51.964238846414396
1.3440312499999998,53.47651450689705
1.3520312499999998,54.852714817949895
1.3600312499999998,54.10402693243977
1.3680312499999998,52.46959078116214
1.3760312499999998,51.96929889670563
1.3840312499999998,51.95722178668409
1.3920312499999998,55.33469958224784
1.4000312499999998,62.284096080754196
1.4080312499999998,66.6864797529149
1.4160312499999999,68.44313022213233
1.4240312499999999,68.54980361260124
1.4320312499999999,67.56270607695669
1.4400312499999997,65.69238717736984
1.4480312499999997,63.70160404725182
1.4560312499999997,62.38773551572032
1.4640312499999997,61.458884515760545
1.4720312499999997,60.69692752391396
1.4800312499999997,60.01685197320817
1.4880312499999997,59.16740406595999
1.4960312499999997,57.96058947051733
1.5040312499999997,56.0915134174375
1.5120312499999997,54.43532287532433
1.5200312499999997,54.634305999613275
1.5280312499999997,55.76127665686378
1.5360312499999997,56.80855083890628
1.5440312499999997,57.39659963376543
1.5520312499999998,57.203856632966406
1.5600312499999998,55.536535189442795
1.5680312499999998,52.361029293798296
1.5760312499999998,49.51765907676689
1.5840312499999998,48.9411071416795
1.5920312499999998,50.01878523556777
1.6000312499999998,50.450479394872886
1.6080312499999998,51.83211490668387
1.6160312499999998,59.29513463107669
1.6240312499999998,65.5339324609109
1.6320312499999998,68.73133298594564
1.6400312499999998,70.15643492264934
1.6480312499999998,70.57664530045545
1.6560312499999998,70.01613677340744
1.6640312499999999,68.66305753942731
1.6720312499999999,67.25274607428445
1.6800312499999999,66.48387749547585
1.6880312499999999,66.1705873162226
1.6960312499999999,65.48639985304514
1.7040312499999997,63.92826754433127
1.7120312499999997,60.83742793641999
1.7200312499999997,58.36774702228902
1.7280312499999997,56.14436656157481
1.7360312499999997,54.83551873805085
1.7440312499999997,57.14877705126004
1.7520312499999997,59.04414414859983
1.7600312499999997,57.512520825770025
1.7680312499999997,53.108685554030465
1.7760312499999997,55.2854585451228
1.7840312499999997,59.33196278768277
1.7920312499999997,59.97841521263226
1.8000312499999997,60.73068629151794
1.8080312499999998,62.81177913467373
1.8160312499999998,64.33206358981374
1.8240312499999998,64.99689079827952
1.8320312499999998,64.81270213593403
1.8400312499999998,64.04713810926816
1.8480312499999998,62.334330099352584
1.8560312499999998,59.08850626835858
1.8640312499999998,55.59740038907846
1.8720312499999998,54.32600580843286
1.8800312499999998,53.5407425536069
1.8880312499999998,51.126931323221044
1.8960312499999998,48.41484626039101
1.9040312499999998,46.94344983633579
1.9120312499999998,46.27533519719451
1.9200312499999999,45.87742680300468
1.9280312499999999,45.306983068210236
1.9360312499999999,45.42102721366398
1.9440312499999999,47.078023446858495
1.9520312499999997,51.140309039931935
1.9600312499999997,56.40108362828572
1.9680312499999997,62.2368589702843
1.9760312499999997,68.35315135316714
1.9840312499999997,72.5088811877844
1.9920312499999997,74.50265022748097
2.0000312499999997,75.19429326676408
2.0080312499999997,75.21873422977977
2.0160312499999997,74.98357145532805
2.0240312499999997,74.81870021245894
2.0320312499999997,74.79509709590042
2.0400312499999997,74.60891563393028
2.0480312499999997,73.93426949376472
2.0560312499999998,72.30553267151302
2.0640312499999998,69.1319285848145
2.0720312499999998,64.94594924426592
2.0800312499999998,61.98159303717076
2.08803125,60.258668400761906
2.09603125,58.4069725868655
2.10403125,56.63874784380638
2.11203125,56.754366435806894
2.12003125,57.65334796032704
2.12803125,56.4995300265806
2.13603125,59.06971987124681
2.14403125,64.2319805536115
2.15203125,67.57567321843233
2.16003125,69.90483394246111
2.16803125,71.25749071643159
2.17603125,71.93632152026116
2.18403125,72.37307938441168
2.19203125,72.5634670172334
2.20003125,72.5139933382051
2.20803125,72.35805717785068
2.21603125,71.9834277720675
2.22403125,71.50753292841556
2.23203125,70.72508655387034
2.24003125,68.77828681136967
2.24803125,65.12099893200347
2.25603125,60.80618878168024
2.26403125,58.70206577975015
2.27203125,56.72399491434731
2.28003125,54.732785288905426
2.28803125,55.03714238673348
2.29603125,57.243898935195574
2.30403125,59.94220845377802
2.31203125,62.25419758429904
2.32003125,63.94021442047055
2.32803125,64.56388054136593
2.33603125,64.35566171891524
2.3440312499999996,64.06550626013352
2.3520312499999996,64.49707328203368
2.3600312499999996,64.7478775589103
2.3680312499999996,63.87159632880335
2.3760312499999996,62.87587417948053
2.3840312499999996,62.262021562525675
2.3920312499999996,60.76260760103718
2.4000312499999996,59.2004546866748
2.4080312499999996,64.30893734743314
2.4160312499999996,69.55606438962002
2.4240312499999996,72.14621796690308
2.4320312499999996,73.2695802562521
2.4400312499999997,73.51270804803627
2.4480312499999997,72.93340569093607
2.4560312499999997,71.77166409711552
2.4640312499999997,69.78198863809945
2.4720312499999997,66.62323056671319
2.4800312499999997,64.27447135269227
2.4880312499999997,65.54699485284003
2.4960312499999997,68.82928875601031
2.5040312499999997,71.53344689869597
2.5120312499999997,73.09937771299172
2.5200312499999997,73.77942803846707
2.5280312499999997,74.02788946691287
2.5360312499999997,74.01419893228446
2.5440312499999997,73.64917457046582
2.5520312499999998,73.11173411220166
2.5600312499999998,72.51180410696492
2.5680312499999998,71.6213207251182
2.5760312499999998,70.26139863509262
2.58403125,68.45294346049823
2.59203125,66.00666873291131
2.60003125,61.91059313970545
2.60803125,57.857205516484186
2.61603125,55.458209082471626
2.62403125,54.67931446162989
2.63203125,56.596637076496194
2.64003125,55.31949527247018
2.64803125,52.68415732611933
2.65603125,52.905736077923606
2.66403125,53.689894669222696
2.67203125,54.28648160166256
2.68003125,54.05579268041484
2.68803125,55.480265476358554
2.69603125,58.078259738601126
2.70403125,61.90496787319066
2.71203125,66.32611887992186
2.72003125,69.37843838838374
2.72803125,71.05550930778041
2.73603125,72.10449301020637
2.74403125,72.71902514173449
2.75203125,73.07434920022475
2.76003125,73.35684579729764
2.76803125,73.53500363213682
2.77603125,73.70018874748995
2.78403125,73.82343536493815
2.79203125,73.79838315814276
2.80003125,73.74928856173108
2.80803125,73.52529942222701
2.81603125,73.25302762710827
2.82403125,73.2250418470735
2.83203125,73.22868131279536
2.84003125,73.2362324591855
2.8480312499999996,73.24727584136883
2.8560312499999996,73.19469907438702
2.8640312499999996,73.09311702851478
2.8720312499999996,72.89249155233873
2.8800312499999996,72.3576831933334
2.8880312499999996,71.27307628297604
2.8960312499999996,69.84798815967784
2.9040312499999996,68.30629100728618
2.9120312499999996,66.50109961123688
2.9200312499999996,64.18535691112147
2.9280312499999996,61.329047365150586
2.9360312499999996,57.69384796393357
2.9440312499999997,53.80126087831728
2.9520312499999997,50.42671236504559
2.9600312499999997,48.25098657386568
2.9680312499999997,46.697953176150016
2.9760312499999997,45.97040075825628
2.9840312499999997,46.3645655010738
2.9920312499999997,47.554068908467755
3.0000312499999997,48.33022082535944
3.0080312499999997,48.470883274775076
3.0160312499999997,48.180270369404184
3.0240312499999997,48.609907918050894
3.0320312499999997,48.89603862634415
3.0400312499999997,49.25328576782726
3.0480312499999997,50.10587144476078
3.0560312499999998,50.87608846281115
3.0640312499999998,51.12772032293249
3.0720312499999998,51.3525594730682
3.0800312499999998,51.542311779859645
3.08803125,51.3812631345807
3.09603125,50.95019233817007
3.10403125,50.960947010497506
3.11203125,51.68389878448743
3.12003125,52.251126532669005
3.12803125,52.30208770775359
3.13603125,52.08588635303222
3.14403125,51.746525867986506
3.15203125,51.30238248201718
3.16003125,50.722341883307095
3.16803125,49.877722789910415
3.17603125,49.40641934018834
3.18403125,49.27909940460103
3.19203125,49.07624319486932
3.20003125,48.89860477379604
3.20803125,49.14700664877098
3.21603125,49.312642726244135
3.22403125,48.35738063697355
3.23203125,47.222014434090525
3.24003125,46.75453946308301
3.24803125,46.49179198412891
3.25603125,46.9745699730685
3.26403125,47.44941574924469
3.27203125,46.46357586795429
3.28003125,45.1098656338769
3.28803125,45.33223881315811
3.29603125,45.80369849568395
3.30403125,45.934023105520936
3.31203125,45.47106693110919
3.32003125,44.87330513792337
3.32803125,47.97161492121373
3.33603125,56.444479672417
3.34403125,61.28361443419429
3.35203125,63.54044349881227
3.36003125,65.79810915405952
3.3680312499999996,67.32087872191472
3.3760312499999996,67.8640451695736
3.3840312499999996,68.4539578157081
3.3920312499999996,69.07709637558737
3.4000312499999996,69.78370386000505
3.4080312499999996,70.5729631092265
3.4160312499999996,71.27275960632238
3.4240312499999996,71.74643102834976
3.4320312499999996,71.81919857099408
3.4400312499999997,71.31116399316178
3.4480312499999997,70.36036422937741
3.4560312499999997,69.58930714519997
3.4640312499999997,69.9513411439853
3.4720312499999997,71.40608914204024
3.4800312499999997,73.10546887769173
3.4880312499999997,74.7444730001115
3.4960312499999997,76.12123570936474
3.5040312499999997,77.09812183709278
3.5120312499999997,77.578371650989
3.5200312499999997,77.70316838193472
3.5280312499999997,77.61267805698675
3.5360312499999997,77.20311104191813
3.5440312499999997,76.75970794808327
3.5520312499999998,76.42282666277043
3.5600312499999998,75.71743995363903
3.5680312499999998,74.40508121304956
3.5760312499999998,72.69323578379088
3.58403125,71.41165540462313
3.59203125,70.04253857951622
3.60003125,68.28493128938969
3.60803125,66.51485578466898
3.61603125,64.86376943171435
3.62403125,63.75700151635192
3.63203125,63.54832014554819
3.64003125,64.13755334512943
3.64803125,65.06568340253243
3.65603125,66.24279795857368
3.66403125,67.81808336134294
3.67203125,69.81258185017094
3.68003125,71.76064851234503
3.68803125,73.2855981509796
3.69603125,74.41710000596598
3.70403125,74.85730198378215
3.71203125,74.49389580639568
3.72003125,73.57964125677992
3.72803125,72.57424504959353
3.73603125,71.52358325333839
3.74403125,69.72194094747101
3.75203125,66.58723104021031
3.76003125,62.33021309058798
3.76803125,57.76260437937809
3.77603125,55.36121700367244
3.78403125,56.99777619302768
3.79203125,61.565770550384926
3.80003125,64.90008175313031
3.80803125,65.5644172791878
3.81603125,63.84922811649679
3.82403125,62.667140198954215
3.83203125,68.96495552696115
3.84003125,75.15317639802947
3.84803125,78.74666193595844
3.85603125,80.51068109976555
3.86403125,80.95340742285074
3.8720312499999996,80.73753412723241
3.8800312499999996,80.99946417244256
3.8880312499999996,81.31237495186683
3.8960312499999996,80.82843318175564
3.9040312499999996,79.93928860439135
3.9120312499999996,79.14873320703376
3.9200312499999996,78.32347661364436
3.9280312499999996,76.95050567608037
3.9360312499999996,74.10208785402722
3.9440312499999997,68.92498231691593
3.9520312499999997,63.67281260880132
3.9600312499999997,61.58496688964124
3.9680312499999997,60.432962979411954
3.9760312499999997,59.72914296733641
3.9840312499999997,60.44672395473245
3.9920312499999997,62.606475911326534
4.000031249999999,63.987794207580215
4.00803125,65.23195037168686
4.016031249999999,66.30905504496863
4.02403125,67.6336864232916
4.032031249999999,70.25290277174555
4.04003125,73.58690657304575
4.048031249999999,76.17266298133472
4.05603125,76.97623921040639
4.064031249999999,76.27657415495618
4.07203125,75.33792638820816
4.080031249999999,74.43987240818005
4.08803125,72.93885339836514
4.096031249999999,70.63995176123714
4.10403125,67.58386939925798
4.112031249999999,64.07612255754843
4.12003125,60.295034841040135
4.128031249999999,55.99192707436717
4.13603125,54.33127636697776
4.144031249999999,55.479152034513326
4.15203125,58.726958068175875
4.160031249999999,62.12733719152436
4.16803125,64.5002394862553
4.176031249999999,64.93121351824276
4.18403125,63.225448043451664
4.192031249999999,63.271547841665814
4.20003125,67.0423488309421
4.2080312499999994,68.77916504211176
4.21603125,67.14239071929677
4.2240312499999995,63.301621713437406
4.23203125,60.84662071670488
4.2400312499999995,60.33766091606356
4.24803125,59.466552544099976
4.2560312499999995,58.080290499186674
4.26403125,56.432822426924474
4.2720312499999995,59.84467582003128
4.28003125,65.53181700925794
4.2880312499999995,68.80480357054134
4.29603125,70.44797063779663
4.3040312499999995,70.19721355745216
4.31203125,68.64331011246253
4.3200312499999995,66.65088494372972
4.32803125,63.38096822882825
4.33603125,59.78078997136787
4.3440312500000005,59.102573691916206
4.35203125,59.37876236667421
4.3600312500000005,59.10717399425523
4.36803125,58.4675835627047
4.3760312500000005,58.17335516592517
4.38403125,58.31190514023849
4.3920312500000005,58.156379339511744
4.40003125,57.82847957906589
4.4080312500000005,58.08938841978335
4.41603125,63.26364378713643
4.4240312500000005,67.9297992606053
4.43203125,69.51615669613504
4.4400312500000005,69.61588986648225
4.44803125,69.21525852270952
4.4560312500000006,68.4754964179344
4.46403125,67.52096211571548
4.472031250000001,66.48510363487503
4.48003125,65.86872651719068
4.488031250000001,65.13120276244344
4.49603125,64.19812227871938
4.504031250000001,63.806126717502124
4.51203125,63.78712943087935
4.520031250000001,63.82235188673565
4.52803125,63.86301864395935
4.536031250000001,64.04130351394149
4.54403125,64.65732743003767
4.552031250000001,66.20960791224975
4.56003125,68.00039132648787
4.568031250000001,69.48510544857358
4.57603125,70.88526198361845
4.584031250000001,72.02691842837014
4.59203125,72.72155481445961
4.600031250000001,73.08500944466773
4.60803125,73.20610478190245
4.616031250000001,73.08275668452241
4.62403125,72.74640456916077
4.632031250000001,72.42092404184022
4.64003125,72.33969885270687
