time,intensity
0.032031249999999734,75.35399743980972
0.040031249999999734,75.16228934288536
0.048031249999999734,74.94690438468487
0.056031249999999734,73.83555814832997
0.06403124999999973,71.03267853863075
0.07203124999999974,67.83729546687721
0.08003124999999973,67.09277062814876
0.08803124999999973,66.35678090434186
0.09603124999999973,64.55302536398831
0.10403124999999974,62.89962726295167
0.11203124999999974,60.73874407698937
0.12003124999999973,57.87155758500116
0.12803124999999974,55.618608473292916
0.13603124999999974,53.08264296065939
0.14403124999999972,50.55145388970023
0.15203124999999973,51.41159784110303
0.16003124999999974,52.482004668265205
0.16803124999999974,54.27336710888301
0.17603124999999975,58.86783379728182
0.18403124999999973,63.30645825160821
0.19203124999999974,65.86854150208684
0.20003124999999974,66.95194349046609
0.20803124999999972,67.40625298872004
0.21603124999999973,67.93720148809088
0.22403124999999974,68.61411705122515
0.23203124999999974,69.1835208037081
0.24003124999999975,69.92885620984299
0.24803124999999973,71.22268437425355
0.2560312499999997,71.71938876434066
0.2640312499999997,71.67630046701686
0.2720312499999997,72.97362506809104
0.28003124999999973,74.24299818620399
0.28803124999999974,74.47779314886712
0.29603124999999975,74.3002438055836
0.30403124999999975,73.95968837818837
0.31203124999999976,73.20317625385158
0.32003124999999977,72.60482071537635
0.3280312499999997,72.53650593810484
0.3360312499999997,72.23183008288453
0.34403124999999973,71.46111610169649
0.35203124999999974,70.76286774740568
0.36003124999999975,70.68747292373628
0.36803124999999975,71.02835771924627
0.37603124999999976,71.13602219160849
0.3840312499999997,70.60157501542415
0.3920312499999997,69.20024575045154
0.4000312499999997,66.84227310866545
0.40803124999999973,63.359027811038246
0.41603124999999974,59.099134069626274
0.42403124999999975,58.66701472973772
0.43203124999999976,60.773993229377716
0.44003124999999976,60.18830495916906
0.44803124999999977,57.94273261815624
0.4560312499999997,59.27352202703346
0.46403124999999973,60.60283759528903
0.47203124999999974,60.755710923964855
0.48003124999999974,62.40026103441045
0.48803124999999975,65.44439693621717
0.49603124999999976,67.74405471097737
0.5040312499999997,68.91625764337078
0.5120312499999997,69.27751760526414
0.5200312499999997,69.5076541852656
0.5280312499999997,69.76499672718002
0.5360312499999997,69.72364450051839
0.5440312499999997,69.76944185790967
0.5520312499999998,70.13806877725294
0.5600312499999998,70.50767131365048
0.5680312499999998,70.31653778914284
0.5760312499999998,69.77448915758052
0.5840312499999998,68.45444026904899
0.5920312499999998,65.47426590935379
0.6000312499999998,60.18726639217191
0.6080312499999998,55.85839304745222
0.6160312499999997,54.94729764719743
0.6240312499999997,56.09588276434646
0.6320312499999997,61.577333053801866
0.6400312499999997,66.13163051768385
0.6480312499999997,68.67630546833331
0.6560312499999997,69.95949287188327
0.6640312499999997,70.14342698389828
0.6720312499999997,69.54530535063532
0.6800312499999998,68.55204280323835
0.6880312499999998,67.40184020348735
0.6960312499999998,67.4943009028585
0.7040312499999998,67.69613587858886
0.7120312499999998,66.12808014951057
0.7200312499999998,64.09561486468519
0.7280312499999998,64.29357118056245
0.7360312499999997,63.721828597996804
0.7440312499999997,63.19240028816566
0.7520312499999997,65.48148642078507
0.7600312499999997,67.51412421521894
0.7680312499999997,67.65126951788262
0.7760312499999997,66.64029430951466
0.7840312499999997,65.86374513536401
0.7920312499999997,66.26454659018795
0.8000312499999997,67.83651865902269
0.8080312499999998,69.19375297093204
0.8160312499999998,69.74318085788296
0.8240312499999998,69.92747916124928
0.8320312499999998,70.05983808481506
0.8400312499999998,69.46240045375392
0.8480312499999998,67.1241982309356
0.8560312499999998,63.061508280497975
0.8640312499999998,60.62311359253577
0.8720312499999997,61.80652534504604
0.8800312499999997,60.910067214377015
0.8880312499999997,56.834870800873674
0.8960312499999997,51.161050303227185
0.9040312499999997,49.94334874984099
0.9120312499999997,51.810595242911646
0.9200312499999997,52.36416327941957
0.9280312499999998,51.794255187261975
0.9360312499999998,51.08907448326071
0.9440312499999998,51.16572501703008
0.9520312499999998,50.853982760683834
0.9600312499999998,51.56116067489173
0.9680312499999998,57.428138543498825
0.9760312499999998,61.06362658330277
0.9840312499999998,61.09303820131892
0.9920312499999997,58.11310613730399
1.0000312499999997,55.44673039845432
1.0080312499999997,59.611632867070405
1.0160312499999997,66.06361067947341
1.0240312499999997,70.63480444284225
1.0320312499999997,72.99699322642152
1.0400312499999997,73.84245013948285
1.0480312499999997,73.79114858185784
1.0560312499999998,73.44194459498947
1.0640312499999998,73.17817488641494
1.0720312499999998,72.84528499876131
1.0800312499999998,72.85845657176077
1.0880312499999998,73.37562575500297
1.0960312499999998,73.98161785218166
1.1040312499999998,74.42459546178634
1.1120312499999998,74.54819840552629
1.1200312499999998,74.14381876982392
1.1280312499999998,73.39249680996878
1.1360312499999998,72.80693051168855
1.1440312499999998,72.33888527289284
1.1520312499999998,71.84218358465571
1.1600312499999998,71.3821567942156
1.1680312499999999,71.05946797666452
1.1760312499999999,70.60310433444059
1.1840312499999999,70.13874373452069
1.1920312499999997,69.81190197741333
1.2000312499999997,69.4635894355156
1.2080312499999997,68.71950654523854
1.2160312499999997,67.15603294642217
1.2240312499999997,64.95660352036802
1.2320312499999997,63.20531148696421
1.2400312499999997,62.84693995947781
1.2480312499999997,63.528789105443586
1.2560312499999997,65.19856773648665
1.2640312499999997,67.28011974018
1.2720312499999997,68.52632533215379
1.2800312499999997,69.23489881623019
1.2880312499999997,69.60321105749308
1.2960312499999997,69.39325092118251
1.3040312499999998,68.95583552376655
1.3120312499999998,68.85570059334951
1.3200312499999998,69.28913738913205
1.3280312499999998,69.41802588219149
1.3360312499999998,69.03646488085357
1.3440312499999998,68.45508692623532
1.3520312499999998,67.51772714337739
1.3600312499999998,66.42765304819184
1.3680312499999998,66.36789236410823
1.3760312499999998,67.03999334449566
1.3840312499999998,66.83823741875646
1.3920312499999998,65.42499007204401
1.4000312499999998,63.430968606181594
1.4080312499999998,61.43377804004355
1.4160312499999999,60.91083447526039
1.4240312499999999,62.52990868031765
1.4320312499999999,64.98027242924783
1.4400312499999997,67.80458460460436
1.4480312499999997,70.75724205839421
1.4560312499999997,73.01321301470472
1.4640312499999997,74.0440057741913
1.4720312499999997,74.18643093723401
1.4800312499999997,73.95693174225549
1.4880312499999997,73.51747878866573
1.4960312499999997,72.62538009171799
1.5040312499999997,71.16984364357302
1.5120312499999997,71.3761107105341
1.5200312499999997,72.42365335770869
1.5280312499999997,71.63771993157562
1.5360312499999997,69.03301029803623
1.5440312499999997,67.40316525070487
1.5520312499999998,69.67727044039381
1.5600312499999998,70.74522162086845
1.5680312499999998,70.17339992783388
1.5760312499999998,69.79043922004612
1.5840312499999998,70.00993720373164
1.5920312499999998,70.04553980034311
1.6000312499999998,69.51736285710965
1.6080312499999998,69.17928162799808
1.6160312499999998,70.15097999124902
1.6240312499999998,71.74712400190123
1.6320312499999998,72.98454071364505
1.6400312499999998,73.61212304271534
1.6480312499999998,73.65482807073961
1.6560312499999998,73.22492852494366
1.6640312499999999,72.29541494499921
1.6720312499999999,71.05487840474053
1.6800312499999999,70.6934254624522
1.6880312499999999,70.98544959100381
1.6960312499999999,71.26824189705532
1.7040312499999997,71.32759666989807
1.7120312499999997,72.1181398310098
1.7200312499999997,73.02565853620028
1.7280312499999997,72.80709122453376
1.7360312499999997,72.28564934321378
1.7440312499999997,72.78210190690798
1.7520312499999997,73.14646615908887
1.7600312499999997,72.41647624564253
1.7680312499999997,70.95455005337992
1.7760312499999997,70.55587146622814
1.7840312499999997,71.92927457805109
1.7920312499999997,72.52810149224618
1.8000312499999997,72.21759389313564
1.8080312499999998,72.1591395105317
1.8160312499999998,71.98231033691053
1.8240312499999998,71.76211039284402
1.8320312499999998,71.25051563970628
1.8400312499999998,69.5200265585289
1.8480312499999998,66.43312725154674
1.8560312499999998,66.03734622324232
1.8640312499999998,68.76294752583924
1.8720312499999998,71.1165147979327
1.8800312499999998,73.58718355065602
1.8880312499999998,75.04040977057271
1.8960312499999998,75.22118532642074
1.9040312499999998,75.68238064152801
1.9120312499999998,76.8081151471927
1.9200312499999999,77.25704664366938
1.9280312499999999,75.7372536409816
1.9360312499999999,71.32085186284628
1.9440312499999999,63.845916543153976
1.9520312499999997,56.49701173730102
1.9600312499999997,52.67163536927623
1.9680312499999997,51.34289619137505
1.9760312499999997,53.09226318346823
1.9840312499999997,54.79889744646934
1.9920312499999997,55.78758681533243
2.0000312499999997,57.50178863494746
2.0080312499999997,59.08781095431365
2.0160312499999997,59.79846764182571
2.0240312499999997,60.05791319977022
2.0320312499999997,61.002777016016026
2.0400312499999997,65.1246967907272
2.0480312499999997,68.05312166335064
2.0560312499999998,69.34304222968873
2.0640312499999998,69.94029341632395
2.0720312499999998,70.01048531420692
2.0800312499999998,69.83447161306009
2.08803125,69.62364383541642
2.09603125,69.24429125914548
2.10403125,69.3522046428224
2.11203125,69.61927244177069
2.12003125,68.332000837302
2.12803125,66.53069669836592
2.13603125,66.86154020450309
2.14403125,67.653689735714
2.15203125,67.97512344577115
2.16003125,68.31649475662897
2.16803125,68.57330386701916
2.17603125,68.52297612603918
2.18403125,67.96369620391934
2.19203125,66.3867158322701
2.20003125,64.85482289257408
2.20803125,64.77735232911984
2.21603125,64.9344167179206
2.22403125,64.92952597324111
2.23203125,64.11027498020476
2.24003125,63.88896558325683
2.24803125,65.56359443546268
2.25603125,67.10783240099045
2.26403125,68.09361253016215
2.27203125,70.02955427509121
2.28003125,71.92621289185313
2.28803125,72.80847498651774
2.29603125,73.23035707683051
2.30403125,73.53124749008006
2.31203125,73.37347631346758
2.32003125,73.26983847176498
2.32803125,73.34845803384215
2.33603125,72.65837296674782
2.3440312499999996,70.63434733767397
2.3520312499999996,67.38974392947232
2.3600312499999996,64.39589920356295
2.3680312499999996,64.56564058708578
2.3760312499999996,64.4278962435526
2.3840312499999996,64.503453339659
2.3920312499999996,66.34981224095434
2.4000312499999996,67.55917693214724
2.4080312499999996,68.03285122430398
2.4160312499999996,68.20503362544676
2.4240312499999996,68.3688595029865
2.4320312499999996,68.7304748918359
2.4400312499999997,69.22627507453717
2.4480312499999997,70.22111912136366
2.4560312499999997,71.85967339630395
2.4640312499999997,73.23577439512435
2.4720312499999997,73.59841905069125
2.4800312499999997,72.5064420930027
2.4880312499999997,70.19910285030268
2.4960312499999997,68.84285153844716
2.5040312499999997,68.52678223154767
2.5120312499999997,68.29364258723113
2.5200312499999997,68.26811364712302
2.5280312499999997,68.31372073087263
2.5360312499999997,68.34802054650947
2.5440312499999997,67.70764509131011
2.5520312499999998,67.41407482704491
2.5600312499999998,67.91484534239812
2.5680312499999998,68.04154853946703
2.5760312499999998,67.80015582788195
2.58403125,67.28971810120822
2.59203125,66.38604561582483
2.60003125,64.90676417487934
2.60803125,63.51801403962821
2.61603125,63.75068412757884
2.62403125,64.96063545714848
2.63203125,65.67982768681954
2.64003125,65.48880727985846
2.64803125,64.86329184438775
2.65603125,65.07822189908487
2.66403125,66.10744265594136
2.67203125,66.3121395310431
2.68003125,65.0421564152265
2.68803125,63.82420826009703
2.69603125,63.96944878734206
2.70403125,64.04627795778846
2.71203125,63.3752930282956
2.72003125,63.753520857866434
2.72803125,66.33689985477261
2.73603125,68.4311349214949
2.74403125,69.252163127082
2.75203125,69.70863995801415
2.76003125,70.3739561190356
2.76803125,70.9057247789202
2.77603125,71.11786356775849
2.78403125,71.03283424776647
2.79203125,70.67520389756793
2.80003125,70.0418517924845
2.80803125,69.40775630895827
2.81603125,68.92519915442945
2.82403125,68.18883416677686
2.83203125,67.47343632732242
2.84003125,67.30912386258854
2.8480312499999996,67.15621254782295
2.8560312499999996,66.8907092368161
2.8640312499999996,66.8603772205133
2.8720312499999996,67.09832513321905
2.8800312499999996,67.21108108432715
2.8880312499999996,66.52812932138941
2.8960312499999996,64.80128143904886
2.9040312499999996,62.120003451428246
2.9120312499999996,60.08514279396277
2.9200312499999996,58.87756244778073
2.9280312499999996,57.32385215656364
2.9360312499999996,57.17101751648892
2.9440312499999997,57.92469115707651
2.9520312499999997,57.43400121825556
2.9600312499999997,54.484654432116585
2.9680312499999997,50.782857129334005
2.9760312499999997,49.46325538218774
2.9840312499999997,48.26692673738022
2.9920312499999997,46.91269061554603
3.0000312499999997,46.23902809221801
3.0080312499999997,45.19424071562192
3.0160312499999997,42.144033708756524
3.0240312499999997,39.40706452234146
3.0320312499999997,39.931315593548696
3.0400312499999997,41.267335264531226
3.0480312499999997,42.93761503555046
3.0560312499999998,42.5739661161883
3.0640312499999998,39.680652550747546
3.0720312499999998,35.63124505556213
3.0800312499999998,34.66247422740787
3.08803125,35.62550929709904
3.09603125,36.72117418459009
3.10403125,37.907672284128594
3.11203125,38.80943856835604
3.12003125,39.11085874987366
3.12803125,39.14567499326181
3.13603125,39.302619163100765
3.14403125,39.558747177565586
3.15203125,42.96336756175479
3.16003125,48.240307775837046
3.16803125,51.40421806615561
3.17603125,51.751747572380125
3.18403125,52.760404855741065
3.19203125,56.51946056178333
3.20003125,58.35343927453408
3.20803125,60.17090799828517
3.21603125,63.52698463665874
3.22403125,65.78108823937784
3.23203125,66.28739813403124
3.24003125,65.02787437887181
3.24803125,62.52542585231146
3.25603125,60.37035648957869
3.26403125,58.162742430082645
3.27203125,56.11961949508469
3.28003125,56.01020690019814
3.28803125,58.590072468380896
3.29603125,61.30559195287515
3.30403125,63.58367246266433
3.31203125,65.25085944474787
3.32003125,65.80280715735677
3.32803125,66.10266980046893
3.33603125,67.47964177025158
3.34403125,68.50454608708104
3.35203125,68.01296734535157
3.36003125,66.1017129367406
3.3680312499999996,63.53642067354524
3.3760312499999996,61.5108256859625
3.3840312499999996,61.82370088440094
3.3920312499999996,62.993456009192315
3.4000312499999996,64.2952675394295
3.4080312499999996,65.72569225666604
3.4160312499999996,65.36958000546515
3.4240312499999996,64.14458211934496
3.4320312499999996,64.37542836103873
3.4400312499999997,66.33018553857124
3.4480312499999997,68.37037558420923
3.4560312499999997,69.12579214951123
3.4640312499999997,69.6313345479919
3.4720312499999997,69.79396275004041
3.4800312499999997,69.25379566633829
3.4880312499999997,69.04670346764432
3.4960312499999997,69.4593855711012
3.5040312499999997,69.97582188924667
3.5120312499999997,70.49535342474239
3.5200312499999997,70.92332315144624
3.5280312499999997,70.08790153413264
3.5360312499999997,67.94130080027416
3.5440312499999997,66.4667341595795
3.5520312499999998,66.60838508050395
3.5600312499999998,67.07497021692434
3.5680312499999998,66.93312379691692
3.5760312499999998,66.71262190491322
3.58403125,66.92495799353969
3.59203125,67.37247223504374
3.60003125,67.61663655433503
3.60803125,67.64676756843741
3.61603125,68.69082235194331
3.62403125,70.6435014302111
3.63203125,71.77314923708714
3.64003125,71.70573223651212
3.64803125,71.20010371740997
3.65603125,71.47457517443212
3.66403125,72.94841294698544
3.67203125,74.35606061240597
3.68003125,74.44154419939716
3.68803125,72.70812739128759
3.69603125,69.45492470044654
3.70403125,65.78611250466582
3.71203125,64.61543344019701
3.72003125,65.70314443068857
3.72803125,66.19744762298615
3.73603125,66.65751180613357
3.74403125,66.43613110152812
3.75203125,65.60465370732783
3.76003125,65.11358667011774
3.76803125,65.23726520654567
3.77603125,66.3455856325633
3.78403125,68.04021339833619
3.79203125,68.97341966494822
3.80003125,69.37887078325682
3.80803125,69.37478374233513
3.81603125,68.1009517074264
3.82403125,66.2187609779414
3.83203125,65.59504004237401
3.84003125,65.57910086000551
3.84803125,65.4470393555473
3.85603125,65.57317876494561
3.86403125,66.58659018093671
3.8720312499999996,67.2132231370087
3.8800312499999996,67.50785419542962
3.8880312499999996,68.01204479292318
3.8960312499999996,67.4818402439668
3.9040312499999996,65.23490976968941
3.9120312499999996,61.476552415141825
3.9200312499999996,56.24878664909755
3.9280312499999996,50.71527411770142
3.9360312499999996,48.04833589589841
3.9440312499999997,47.891400524363206
3.9520312499999997,49.873485504538266
3.9600312499999997,52.13902599301035
3.9680312499999997,53.02141402771048
3.9760312499999997,53.07695600994788
3.9840312499999997,55.83388093017254
3.9920312499999997,60.36412577852829
4.000031249999999,63.73758250621381
4.00803125,65.47008094425505
4.016031249999999,65.49813659975236
4.02403125,64.42738033967461
4.032031249999999,63.11929652320991
4.04003125,62.58662048636942
4.048031249999999,63.47607519582449
4.05603125,64.3881124249121
4.064031249999999,65.07220080578182
4.07203125,65.89413264943369
4.080031249999999,66.65863421153163
4.08803125,67.02810057685102
4.096031249999999,66.91633867080218
4.10403125,65.97083871709485
4.112031249999999,64.06057490955502
4.12003125,62.731583295427875
4.128031249999999,63.74986059969396
4.13603125,64.71469055938407
4.144031249999999,63.96885169531984
4.15203125,61.82546514885517
4.160031249999999,59.0833228046651
4.16803125,56.556933971985295
