time,intensity
0.032031249999999734,74.21079563253203
0.040031249999999734,75.0503572369802
0.048031249999999734,75.3033677288228
0.056031249999999734,75.10868466873335
0.06403124999999973,74.5059575371979
0.07203124999999974,73.64774458099477
0.08003124999999973,72.7280194646055
0.08803124999999973,71.94509606478863
0.09603124999999973,71.4883903679056
0.10403124999999974,71.42304310571339
0.11203124999999974,71.34402952965664
0.12003124999999973,70.90329639571112
0.12803124999999974,70.10480083713503
0.13603124999999974,69.44373382164453
0.14403124999999972,68.97839896379404
0.15203124999999973,68.6149269033592
0.16003124999999974,68.24302462338147
0.16803124999999974,67.67287702691031
0.17603124999999975,66.93037623525369
0.18403124999999973,66.25701408205757
0.19203124999999974,65.83890862246139
0.20003124999999974,65.29005455458122
0.20803124999999972,64.95299390246016
0.21603124999999973,65.2186372804211
0.22403124999999974,65.74971999691024
0.23203124999999974,66.42788053816261
0.24003124999999975,67.17895336729539
0.24803124999999973,68.05149172746235
0.2560312499999997,68.94985670078819
0.2640312499999997,69.48753708102272
0.2720312499999997,69.38095042969302
0.28003124999999973,68.35054269498164
0.28803124999999974,65.92859925596824
0.29603124999999975,62.4879817285321
0.30403124999999975,58.936876112435456
0.31203124999999976,56.27857269771204
0.32003124999999977,53.66880262869972
0.3280312499999997,51.84077523357104
0.3360312499999997,56.94519375946528
0.34403124999999973,61.544753644343814
0.35203124999999974,63.81021890297012
0.36003124999999975,64.37981824419343
0.36803124999999975,62.366862734611715
0.37603124999999976,64.53561115190281
0.3840312499999997,70.18215190384147
0.3920312499999997,73.69192404928282
0.4000312499999997,75.3891978757623
0.40803124999999973,75.92281981261641
0.41603124999999974,75.89598696300536
0.42403124999999975,75.18777613271378
0.43203124999999976,73.90202529828449
0.44003124999999976,73.4809326417932
0.44803124999999977,73.16151340188199
0.4560312499999997,70.83623218503989
0.46403124999999973,67.01413854650627
0.47203124999999974,62.78985610885226
0.48003124999999974,59.88167324426815
0.48803124999999975,58.91622009099408
0.49603124999999976,59.356826176462995
0.5040312499999997,60.83469594857104
0.5120312499999997,62.70468884272429
0.5200312499999997,64.52476657902247
0.5280312499999997,66.43282622225755
0.5360312499999997,68.13318677612949
0.5440312499999997,69.15073009345282
0.5520312499999998,69.3390155508976
0.5600312499999998,68.90944493012205
0.5680312499999998,68.62792913285928
0.5760312499999998,68.04445551262606
0.5840312499999998,67.00706833843013
0.5920312499999998,67.26417758494074
0.6000312499999998,69.86050991678326
0.6080312499999998,71.58566028044255
0.6160312499999997,71.117567258304
0.6240312499999997,69.74489198285396
0.6320312499999997,69.25585841579169
0.6400312499999997,69.03874940905777
0.6480312499999997,68.22718514928154
0.6560312499999997,67.08240223223885
0.6640312499999997,66.53828677320101
0.6720312499999997,66.17120215122094
0.6800312499999998,65.49001175291525
0.6880312499999998,65.03268332675651
0.6960312499999998,64.88811764487971
0.7040312499999998,64.61530053545592
0.7120312499999998,64.30162584794249
0.7200312499999998,63.630491677314126
0.7280312499999998,61.697246469472695
0.7360312499999997,57.41617108014456
0.7440312499999997,50.256320185087404
0.7520312499999997,42.77743810767075
0.7600312499999997,37.99587354636251
0.7680312499999997,36.68637258988384
0.7760312499999997,37.04829495291086
0.7840312499999997,38.260176996143265
0.7920312499999997,38.97315281687097
0.8000312499999997,39.67774034064404
0.8080312499999998,40.420719542063175
0.8160312499999998,39.259134555635065
0.8240312499999998,39.748361860733496
0.8320312499999998,42.91125981597542
0.8400312499999998,47.1431812439349
0.8480312499999998,51.36369738205577
0.8560312499999998,53.864424509925406
0.8640312499999998,58.1265888203862
0.8720312499999997,62.7336370266842
0.8800312499999997,65.72788638988987
0.8880312499999997,67.24371464779937
0.8960312499999997,67.78108511796873
0.9040312499999997,67.5888453788296
0.9120312499999997,66.4793502220431
0.9200312499999997,65.80869385712379
0.9280312499999998,66.96209835554949
0.9360312499999998,68.46425209791748
0.9440312499999998,69.253306799471
0.9520312499999998,68.57518251464452
0.9600312499999998,67.78352144098614
0.9680312499999998,67.44506288282894
0.9760312499999998,66.74761168720363
0.9840312499999998,65.86432348828035
0.9920312499999997,64.43844804425102
1.0000312499999997,61.371188009222195
1.0080312499999997,55.569380764768155
1.0160312499999997,47.14026165271427
1.0240312499999997,41.241317233805134
1.0320312499999997,39.83405068043014
1.0400312499999997,39.32191612980049
1.0480312499999997,39.050231272349215
1.0560312499999998,39.09376084940657
1.0640312499999998,39.647445973600085
1.0720312499999998,41.914594457246544
1.0800312499999998,51.252134289501605
1.0880312499999998,58.52562348993913
1.0960312499999998,62.071967496976434
1.1040312499999998,64.72391045232047
1.1120312499999998,67.67803458496928
1.1200312499999998,69.31530549648942
1.1280312499999998,69.76409631258656
1.1360312499999998,69.48018679873434
1.1440312499999998,69.46632446639293
1.1520312499999998,69.34976893311098
1.1600312499999998,68.56793685431428
1.1680312499999999,68.00943129808337
1.1760312499999999,67.1356131338913
1.1840312499999999,65.44429776491438
1.1920312499999997,63.55209050714514
1.2000312499999997,62.98406359247441
1.2080312499999997,67.48724636858395
1.2160312499999997,72.60127513896745
1.2240312499999997,75.960872425329
1.2320312499999997,77.93905233131812
1.2400312499999997,78.75978659314653
1.2480312499999997,78.69399875096636
1.2560312499999997,77.81766984203752
1.2640312499999997,76.36601997803743
1.2720312499999997,75.67590089271879
1.2800312499999997,75.98686398166623
1.2880312499999997,76.38927402200744
1.2960312499999997,76.2153940214335
1.3040312499999998,75.61201323114251
1.3120312499999998,75.18466157533074
1.3200312499999998,74.43448688520223
1.3280312499999998,73.19944290249494
1.3360312499999998,72.25051668370307
1.3440312499999998,72.00059058733916
1.3520312499999998,71.60185134810442
1.3600312499999998,70.11094659734462
1.3680312499999998,68.60923847001064
1.3760312499999998,67.50984128108614
1.3840312499999998,66.61699088798669
1.3920312499999998,65.7797523381634
1.4000312499999998,64.73418444657239
1.4080312499999998,63.82766033542548
1.4160312499999999,63.122381392575484
1.4240312499999999,62.719235712498566
1.4320312499999999,62.766225200091384
1.4400312499999997,62.514533566910266
1.4480312499999997,61.92886833758959
1.4560312499999997,61.26893210131498
1.4640312499999997,60.50022451057487
1.4720312499999997,58.72971471815837
1.4800312499999997,55.653982716254724
1.4880312499999997,52.61390795815547
1.4960312499999997,51.13649681457198
1.5040312499999997,49.69503041466068
1.5120312499999997,49.19389430540719
1.5200312499999997,52.02874758534098
1.5280312499999997,56.69302356282776
1.5360312499999997,60.78290601622395
1.5440312499999997,63.258630863010204
1.5520312499999998,64.7216010452795
1.5600312499999998,65.85643624225412
1.5680312499999998,66.54066570678681
1.5760312499999998,66.86677307342504
1.5840312499999998,66.96282622851848
1.5920312499999998,66.84833290882113
1.6000312499999998,66.57877802257322
1.6080312499999998,65.70497510299988
1.6160312499999998,64.47619205884435
1.6240312499999998,63.560400297599344
1.6320312499999998,63.11605372114971
1.6400312499999998,63.03742961068764
1.6480312499999998,63.230106768024676
1.6560312499999998,63.42253190761941
1.6640312499999999,63.57602732337416
1.6720312499999999,63.79601159060832
1.6800312499999999,63.70905135227148
1.6880312499999999,62.94665361937432
1.6960312499999999,61.93209401053072
1.7040312499999997,60.89619218593552
1.7120312499999997,60.08026392818685
1.7200312499999997,59.70401912741331
1.7280312499999997,60.412377638470424
1.7360312499999997,61.6378413843777
1.7440312499999997,63.047378770181204
1.7520312499999997,64.60012254743586
1.7600312499999997,66.02532832061166
1.7680312499999997,67.18955726190133
1.7760312499999997,67.9722042973419
1.7840312499999997,68.23222968920612
1.7920312499999997,68.10222976372413
1.8000312499999997,67.84976991225895
1.8080312499999998,67.54516530588923
1.8160312499999998,67.21331053290561
1.8240312499999998,66.9898552094075
1.8320312499999998,66.6686178639571
1.8400312499999998,65.91497548161965
1.8480312499999998,64.72014087281677
1.8560312499999998,63.215571072053734
1.8640312499999998,61.58914161348477
1.8720312499999998,60.8996541950157
1.8800312499999998,60.88348305310753
1.8880312499999998,60.87947523102863
1.8960312499999998,61.27579791637642
1.9040312499999998,61.883941271225
1.9120312499999998,62.23278992531427
1.9200312499999999,62.97176872323516
1.9280312499999999,64.4612413890762
1.9360312499999999,65.3430836311102
1.9440312499999999,64.72041813442578
1.9520312499999997,63.165342033485565
1.9600312499999997,62.122399611417734
1.9680312499999997,61.849667312558935
1.9760312499999997,61.73772999868896
1.9840312499999997,61.38369086479736
1.9920312499999997,61.413752125554794
2.0000312499999997,61.945405727014816
2.0080312499999997,61.8606949715214
2.0160312499999997,62.10530675149406
2.0240312499999997,62.072175069070035
2.0320312499999997,59.056086807483716
2.0400312499999997,55.94826038759656
2.0480312499999997,58.917326307506634
2.0560312499999998,59.678903666480245
2.0640312499999998,57.46914973048608
2.0720312499999998,59.75855893726979
2.0800312499999998,62.712361387120986
2.08803125,62.99851522079731
2.09603125,63.61642639033278
2.10403125,65.42891565881384
2.11203125,66.37604214448193
2.12003125,66.73835210560176
2.12803125,66.90813803902152
2.13603125,66.85564180031751
2.14403125,66.67058333131749
2.15203125,66.39045988872694
2.16003125,65.9251953972285
2.16803125,65.2475958702235
2.17603125,64.12958302887957
2.18403125,62.46127987824745
2.19203125,60.4013419221241
2.20003125,59.867123305045425
2.20803125,61.4659209225522
2.21603125,63.30485464287928
2.22403125,64.30245850460895
2.23203125,65.29440539370029
2.24003125,65.86780905473726
2.24803125,65.7027740725789
2.25603125,65.45793575020065
2.26403125,66.55096391483546
2.27203125,67.80314322505147
2.28003125,67.7346375718244
2.28803125,67.29926690485958
2.29603125,66.32248774936266
2.30403125,63.81854565274012
2.31203125,61.483314931578256
2.32003125,61.04938479187495
2.32803125,61.257421244832095
2.33603125,61.6175957626007
2.3440312499999996,60.992943679280806
2.3520312499999996,59.46287619422034
2.3600312499999996,58.625533895740645
2.3680312499999996,58.14128383344905
2.3760312499999996,57.53543114143448
2.3840312499999996,57.13133923777639
2.3920312499999996,56.768675476273344
2.4000312499999996,55.97697113501563
2.4080312499999996,55.421937581420515
2.4160312499999996,55.28564106897521
2.4240312499999996,55.07157623137318
2.4320312499999996,55.07761248501274
2.4400312499999997,54.883775440342795
2.4480312499999997,54.487170857827955
2.4560312499999997,54.56098938163628
2.4640312499999997,54.251599327913695
2.4720312499999997,53.57407639409621
2.4800312499999997,55.53704866328722
2.4880312499999997,61.4512362828728
2.4960312499999997,67.48500477692852
2.5040312499999997,71.63429934083447
2.5120312499999997,74.12070543317402
2.5200312499999997,75.6934505143006
2.5280312499999997,76.75056759354122
2.5360312499999997,77.27069071985619
2.5440312499999997,77.2330379027496
2.5520312499999998,76.94572404252463
2.5600312499999998,76.7562352309018
2.5680312499999998,76.58606532477415
2.5760312499999998,76.63770888486226
2.58403125,76.79233111259576
2.59203125,76.5540899130178
2.60003125,75.81703826344055
2.60803125,75.04156448689851
2.61603125,74.41157972100545
2.62403125,74.01117404141284
2.63203125,73.74969968754917
2.64003125,73.44468106729776
2.64803125,72.96246664959538
2.65603125,72.2583831505815
2.66403125,71.01595573278706
2.67203125,69.40134989622634
2.68003125,68.85390640520255
2.68803125,68.52958362499584
2.69603125,67.92519283128914
2.70403125,67.72026376112082
2.71203125,67.58973505765658
2.72003125,67.3027247128947
2.72803125,66.91285799961813
2.73603125,66.4996237823261
2.74403125,66.00576134999882
2.75203125,65.38784471320466
2.76003125,64.77359855824017
2.76803125,63.893516136505674
2.77603125,63.94511624951346
2.78403125,65.91747529752921
2.79203125,68.05080062420404
2.80003125,68.288728635532
2.80803125,67.03232652662726
2.81603125,66.18581795082547
2.82403125,66.307772508804
2.83203125,66.06749039770985
2.84003125,65.03549815054073
2.8480312499999996,64.12891176533614
2.8560312499999996,63.12253015814524
2.8640312499999996,60.85524345227227
2.8720312499999996,60.734451846958315
2.8800312499999996,64.76038454443808
2.8880312499999996,67.1362530403427
2.8960312499999996,67.47394789108506
2.9040312499999996,66.6477547490934
2.9120312499999996,65.20775310931461
2.9200312499999996,64.38865439787355
2.9280312499999996,64.42301599829129
2.9360312499999996,64.5223410651831
2.9440312499999997,64.10410367311167
2.9520312499999997,62.358066663249865
2.9600312499999997,59.652402987815805
2.9680312499999997,55.30255508010356
2.9760312499999997,50.79040932261299
2.9840312499999997,47.05080883634199
2.9920312499999997,42.99172492476467
3.0000312499999997,40.31715284112269
3.0080312499999997,38.93970792114545
3.0160312499999997,38.574391543048655
3.0240312499999997,39.47731636503196
3.0320312499999997,49.339440074613286
3.0400312499999997,58.81320756604061
3.0480312499999997,64.33737165608693
3.0560312499999998,67.97937641899682
3.0640312499999998,69.48216984276796
3.0720312499999998,68.92524925812575
3.0800312499999998,68.02173108015506
3.08803125,67.89328653191866
3.09603125,69.55362253234358
3.10403125,69.6095620161466
3.11203125,66.52478835777283
3.12003125,61.949114346931836
3.12803125,58.95845328550245
3.13603125,60.490557264005645
3.14403125,65.44149709439677
3.15203125,68.48850611255287
3.16003125,69.43156647820585
3.16803125,69.45901107249212
3.17603125,69.53399848327864
3.18403125,69.79191301984775
3.19203125,70.12868435131988
3.20003125,70.54426761726587
3.20803125,70.94901305554751
3.21603125,71.23547327785643
3.22403125,71.21136553602994
3.23203125,70.8480379553786
3.24003125,70.41810695583892
3.24803125,69.74108859591703
3.25603125,68.96664112778814
3.26403125,69.52127494616752
3.27203125,71.06683428327426
3.28003125,72.14638429380202
3.28803125,72.68849950535703
3.29603125,73.41221151387666
3.30403125,73.81739502204402
3.31203125,73.13216152439833
3.32003125,71.98228931601801
3.32803125,70.4896806425341
3.33603125,67.1866197506016
3.34403125,61.057248503361464
3.35203125,54.13897780527246
3.36003125,47.922417482405834
3.3680312499999996,43.5713962642713
3.3760312499999996,41.95364554519309
3.3840312499999996,41.762372396730896
3.3920312499999996,41.588287529076226
3.4000312499999996,46.13409077296961
3.4080312499999996,56.54107863287309
3.4160312499999996,62.01409497980979
3.4240312499999996,62.48819145868755
3.4320312499999996,60.114586054357765
3.4400312499999997,63.67579015905059
3.4480312499999997,67.86540186075877
3.4560312499999997,69.92407754691033
3.4640312499999997,70.38842305737973
3.4720312499999997,69.86468725996748
3.4800312499999997,68.51609945377558
3.4880312499999997,66.67132141257693
3.4960312499999997,65.18599386525419
3.5040312499999997,64.75047815088585
3.5120312499999997,64.6093075753904
3.5200312499999997,64.50481838674024
3.5280312499999997,64.51034066391205
3.5360312499999997,64.51455249531394
3.5440312499999997,64.85903291141233
3.5520312499999998,66.28669881280254
3.5600312499999998,67.76263591191827
3.5680312499999998,68.52448044736602
3.5760312499999998,68.42629578899677
3.58403125,67.6963644008518
3.59203125,67.02287604407455
3.60003125,66.43430029487111
3.60803125,65.71383642167363
3.61603125,65.03434959428797
3.62403125,64.73791948111126
3.63203125,64.80826189879325
3.64003125,64.96201426440825
3.64803125,65.61522847795887
3.65603125,66.95403897273758
3.66403125,68.10436602422872
3.67203125,68.93003939790776
3.68003125,69.78666841407984
3.68803125,70.49680947146601
3.69603125,70.65091843742435
3.70403125,70.54737021110319
3.71203125,70.45874482935942
3.72003125,70.42567941086959
3.72803125,70.67153001524173
3.73603125,71.06281052700733
3.74403125,71.42574725237588
3.75203125,71.85724218566261
3.76003125,72.06836808412194
3.76803125,71.86628371340083
3.77603125,71.52075275166796
3.78403125,71.0096355097376
3.79203125,70.32537287344253
3.80003125,69.969353605963
3.80803125,69.85201374639136
3.81603125,69.71465725736151
3.82403125,69.66466668676522
3.83203125,69.63130671172338
3.84003125,69.33058433971343
3.84803125,68.66702489290061
3.85603125,67.75842963327194
3.86403125,66.97854514105414
3.8720312499999996,66.3230273958652
3.8800312499999996,65.04852140058959
3.8880312499999996,62.765469293578356
3.8960312499999996,59.53237361648286
3.9040312499999996,55.50336431133169
3.9120312499999996,51.09800630210817
3.9200312499999996,50.47992564356116
3.9280312499999996,52.50652114252688
3.9360312499999996,52.66819558986293
3.9440312499999997,52.56456629397154
3.9520312499999997,58.29343572329048
3.9600312499999997,63.35424551331214
3.9680312499999997,65.8692375149162
3.9760312499999997,66.40988374373347
3.9840312499999997,65.96241669175912
3.9920312499999997,65.43705460317722
4.000031249999999,64.73975655203154
4.00803125,63.31187577180654
4.016031249999999,61.30168894374726
4.02403125,58.609406632637935
4.032031249999999,56.05107611242008
4.04003125,54.03647802658853
4.048031249999999,52.668114806382846
4.05603125,51.904740451488706
4.064031249999999,52.002787937600985
4.07203125,51.6148906099739
4.080031249999999,51.05002108265009
4.08803125,51.261934670703795
4.096031249999999,51.157353547015134
4.10403125,50.41707525630051
4.112031249999999,49.68783860309439
4.12003125,49.14195705545098
4.128031249999999,48.331157234081346
4.13603125,47.010547873839286
4.144031249999999,44.705453116700625
4.15203125,40.81953818075192
4.160031249999999,36.52030685477043
4.16803125,36.176416874729945
4.176031249999999,38.41764715767228
4.18403125,40.19245317434994
4.192031249999999,41.26209892154029
4.20003125,41.834788611284935
4.2080312499999994,43.39938322394631
4.21603125,45.34038771436957
4.2240312499999995,45.83144413208663
4.23203125,45.44369626112393
4.2400312499999995,45.365006522261226
4.24803125,45.9784054369548
4.2560312499999995,46.4960778943051
4.26403125,46.5636965690488
4.2720312499999995,46.70434345548492
4.28003125,47.21793479400966
4.2880312499999995,47.72363068510174
4.29603125,48.347788404472276
4.3040312499999995,48.59097522940776
4.31203125,47.89803455288002
4.3200312499999995,46.662529545364706
4.32803125,45.579953684498946
4.33603125,45.1845688419111
4.3440312500000005,45.50519408827946
4.35203125,46.1125178303224
4.3600312500000005,46.61885624893464
4.36803125,47.240462615959856
4.3760312500000005,47.57911787117866
4.38403125,47.346212354298736
4.3920312500000005,47.62294442852988
4.40003125,47.14891951702256
4.4080312500000005,46.01822307653262
4.41603125,45.62538323011629
4.4240312500000005,45.944178294896254
4.43203125,45.753558885653625
4.4400312500000005,44.86185623993911
4.44803125,43.67843881849587
4.4560312500000006,43.083512632611615
4.46403125,44.11245182218568
4.472031250000001,44.93843609402531
4.48003125,44.543604321769465
4.488031250000001,43.95857504729754
4.49603125,43.757299696091934
4.504031250000001,43.24372220260599
4.51203125,42.68263547039596
4.520031250000001,42.14705702754526
4.52803125,40.486829873093626
4.536031250000001,37.62970792575054
4.54403125,35.742880740973575
4.552031250000001,35.043067799700324
4.56003125,36.30003047092804
4.568031250000001,35.601084083297316
4.57603125,33.1282793368651
4.584031250000001,31.78167808599134
4.59203125,31.748163157320818
4.600031250000001,31.992559035374327
4.60803125,32.272958217240834
4.616031250000001,35.6887655883755
4.62403125,37.98753306695188
4.632031250000001,40.782973358626826
4.64003125,46.53878106320869
