time,intensity
0.03203125000000018,68.59494681350407
0.04003125000000018,69.93686438269054
0.04803125000000018,70.98350542939203
0.05603125000000018,71.73298749254515
0.06403125000000018,72.18219214219546
0.07203125000000019,71.99604241688934
0.08003125000000018,71.11513140266388
0.08803125000000017,69.65714963615778
0.09603125000000018,67.65659028561551
0.10403125000000019,65.3098627552077
0.11203125000000018,63.29597190390083
0.12003125000000017,62.28546558067922
0.12803125000000018,61.995234844850486
0.1360312500000002,62.1939450728134
0.14403125000000017,62.74539636977969
0.15203125000000017,63.31636235491308
0.16003125000000018,63.87695190632072
0.1680312500000002,64.55485452109752
0.1760312500000002,65.22307343339061
0.18403125000000017,65.57817742064695
0.19203125000000018,65.37973487070049
0.2000312500000002,64.5125994658516
0.20803125000000017,63.14420717802841
0.21603125000000017,61.76091104069401
0.22403125000000018,60.5228608795896
0.2320312500000002,59.430735376777605
0.2400312500000002,58.63688562604083
0.24803125000000018,57.78474984364722
0.25603125000000015,57.24284480090059
0.26403125000000016,57.15688614975085
0.27203125000000017,56.49019428565733
0.2800312500000002,55.11431018376557
0.2880312500000002,53.49305555220177
0.2960312500000002,51.89911819831944
0.3040312500000002,50.94574828549987
0.3120312500000002,50.2324548915409
0.3200312500000002,49.7226290045333
0.32803125000000016,50.39716838396014
0.33603125000000017,51.593609676592116
0.3440312500000002,52.31319430561835
0.3520312500000002,52.698383929640364
0.3600312500000002,53.09867376866799
0.3680312500000002,53.339104072804496
0.3760312500000002,53.4074815667516
0.38403125000000016,53.45907714035587
0.39203125000000016,53.549812461881174
0.40003125000000017,54.263138551813995
0.4080312500000002,55.87764895632929
0.4160312500000002,57.89802255972248
0.4240312500000002,59.82158983401098
0.4320312500000002,60.87064212790462
0.4400312500000002,60.49657190929161
0.4480312500000002,59.041501529657445
0.45603125000000017,57.277575539379015
0.4640312500000002,55.100038938570314
0.4720312500000002,52.20335751489917
0.4800312500000002,49.46171141855388
0.4880312500000002,47.13838715803823
0.4960312500000002,44.50521506748509
0.5040312500000002,43.23432012123182
0.5120312500000002,42.16517138476837
0.5200312500000002,39.96986935762596
0.5280312500000002,39.22672086388373
0.5360312500000002,38.17243566123763
0.5440312500000002,36.28886589115708
0.5520312500000002,34.9593421388523
0.5600312500000002,33.976216994173015
0.5680312500000002,33.688372296931455
0.5760312500000002,34.356700080933834
0.5840312500000002,35.42535239277394
0.5920312500000002,41.22446786121397
0.6000312500000002,48.82742732888139
0.6080312500000002,53.39210054995636
0.6160312500000001,55.6454449314765
0.6240312500000001,57.015101355303216
0.6320312500000002,58.64386507337812
0.6400312500000002,59.210457178873696
0.6480312500000002,58.26667634416489
0.6560312500000002,58.349145713139336
0.6640312500000002,61.60224285964979
0.6720312500000002,66.20061655453672
0.6800312500000002,70.51940434484361
0.6880312500000002,73.64760013966725
0.6960312500000002,75.28818658231965
0.7040312500000002,75.79618673272427
0.7120312500000002,75.70612969814873
0.7200312500000002,75.30922167907309
0.7280312500000002,74.6768216818599
0.7360312500000001,73.66827729753541
0.7440312500000001,71.91601819640178
0.7520312500000002,69.01408150529267
0.7600312500000002,65.1352715021605
0.7680312500000002,61.36989024602542
0.7760312500000002,58.40849410265015
0.7840312500000002,55.5890823637167
0.7920312500000002,52.94485442200255
0.8000312500000002,51.19703560712996
0.8080312500000002,51.12818866239437
0.8160312500000002,52.05312642491784
0.8240312500000002,52.86456179130071
0.8320312500000002,53.21057557411457
0.8400312500000002,52.67427446488642
0.8480312500000002,54.405207092210226
0.8560312500000002,61.08859459932185
0.8640312500000003,67.05589274886401
0.8720312500000001,71.03580597084999
0.8800312500000002,73.28330028677473
0.8880312500000002,74.32848360546285
0.8960312500000002,74.75698027699544
0.9040312500000002,74.85505235587483
0.9120312500000002,74.5138216871542
0.9200312500000002,73.55614508385909
0.9280312500000002,71.57509242761665
0.9360312500000002,68.13410152843285
0.9440312500000002,63.6383479717314
0.9520312500000002,59.77563705915608
0.9600312500000002,56.672196131158394
0.9680312500000002,53.38909133659467
0.9760312500000002,50.472724932626264
0.9840312500000002,49.1085141889713
0.9920312500000001,48.56464967499562
1.0000312500000001,48.05264628104344
1.0080312500000002,49.21754566572265
1.0160312500000002,54.868038303981386
1.0240312500000002,61.00837372186192
1.0320312500000002,65.3170272293695
1.0400312500000002,67.53894394329345
1.0480312500000002,68.21857395261985
1.0560312500000002,68.20216789182011
1.0640312500000002,68.02298487400141
1.0720312500000002,67.88768512976615
1.0800312500000002,68.1426883959245
1.0880312500000002,69.08481452855543
1.0960312500000002,70.27629706481193
1.1040312500000002,71.27280668642898
1.1120312500000002,71.96174528383183
1.1200312500000003,72.45114550294355
1.1280312500000003,72.90230027039814
1.1360312500000003,73.17939597343164
1.1440312500000003,73.20305646135763
1.1520312500000003,73.201052735419
1.1600312500000003,73.24108588945683
1.1680312500000003,73.00776624536036
1.1760312500000003,72.41714029588712
1.1840312500000003,71.6370774180952
1.19203125,70.62574009985137
1.20003125,69.22771317586508
1.2080312500000001,67.68508572863007
1.2160312500000001,66.07409936612179
1.2240312500000001,64.18410687925626
1.2320312500000001,63.34286042750566
1.2400312500000001,64.21387197775064
1.2480312500000001,65.09916010434482
1.2560312500000002,65.57581069086613
1.2640312500000002,65.90042741450432
1.2720312500000002,66.36800802447779
1.2800312500000002,67.28782785912313
1.2880312500000002,68.33117061689975
1.2960312500000002,69.16256889009159
1.3040312500000002,69.77174734777363
1.3120312500000002,70.2028005725505
1.3200312500000002,70.3988729196691
1.3280312500000002,70.51022429165455
1.3360312500000002,70.57017555165429
1.3440312500000002,70.24762886135517
1.3520312500000002,69.28794865953165
1.3600312500000002,67.70499017904453
1.3680312500000003,65.21978061280565
1.3760312500000003,61.87278338204336
1.3840312500000003,58.8802672792864
1.3920312500000003,56.85526810114888
1.4000312500000003,55.07033999870145
1.4080312500000003,53.06897346466293
1.4160312500000003,50.52156534418746
1.4240312500000003,46.70010603363912
1.4320312500000003,44.81960041487525
1.44003125,47.17293381881805
1.44803125,50.029997043924425
1.45603125,50.75880395676854
1.4640312500000001,49.811215382345296
1.4720312500000001,48.99424512123427
1.4800312500000001,49.17096828840404
1.4880312500000001,53.957910747353466
1.4960312500000001,59.79266778187154
1.5040312500000002,63.86060976089642
1.5120312500000002,66.24094438807204
1.5200312500000002,67.55283918620917
1.5280312500000002,68.39791643186479
1.5360312500000002,68.66840364854338
1.5440312500000002,67.80747454404258
1.5520312500000002,65.82584495265121
1.5600312500000002,64.07094537026279
1.5680312500000002,64.15391837586876
1.5760312500000002,66.05848736423135
1.5840312500000002,69.02632178793817
1.5920312500000002,71.82718215421458
1.6000312500000002,73.6761251054391
1.6080312500000002,74.61230764609404
1.6160312500000003,75.24705747103893
1.6240312500000003,75.8196582470934
1.6320312500000003,76.1454467602606
1.6400312500000003,76.19383615342797
1.6480312500000003,76.019065679292
1.6560312500000003,75.9038525753773
1.6640312500000003,76.0698749309639
1.6720312500000003,76.07951010696374
1.6800312500000003,75.66542470591034
1.6880312500000003,75.03814761440583
1.6960312500000003,74.43883158243831
1.70403125,73.85461099570834
1.7120312500000001,73.26097807516533
1.7200312500000001,72.54390874134576
1.7280312500000001,71.3949811790859
1.7360312500000001,69.55693081880179
1.7440312500000001,66.91341034951456
1.7520312500000002,62.7877171836914
1.7600312500000002,58.972130347072245
1.7680312500000002,57.40011527599923
1.7760312500000002,56.40207499231199
1.7840312500000002,56.36525625619732
1.7920312500000002,57.34822401791231
1.8000312500000002,60.04767254391642
1.8080312500000002,63.51985561351989
1.8160312500000002,65.407665324092
1.8240312500000002,65.48653881049638
1.8320312500000002,65.15521306130486
1.8400312500000002,64.92430423335074
1.8480312500000002,64.16459474609572
1.8560312500000002,61.7589513125712
1.8640312500000003,56.592652817980785
1.8720312500000003,53.972857908399625
1.8800312500000003,57.50634410599402
1.8880312500000003,58.12507838000393
1.8960312500000003,58.7643117797959
1.9040312500000003,62.619353078883535
1.9120312500000003,65.7964126245735
1.9200312500000003,68.0989571196068
1.9280312500000003,70.03855630435523
1.9360312500000003,71.53700792009244
1.9440312500000003,72.50742409860118
1.95203125,73.05480787358451
1.9600312500000001,73.25368415213515
1.9680312500000001,73.28233968130021
1.9760312500000001,73.3811407191679
1.9840312500000001,73.51886576758835
1.9920312500000001,73.24923665909908
2.00003125,72.2430840150285
2.00803125,70.44311672446003
2.01603125,67.84341039982226
2.02403125,64.87458572776742
2.03203125,62.35478032545382
2.04003125,60.69615520094971
2.04803125,59.81781589932118
2.05603125,59.54926734416211
2.06403125,59.28782908354152
2.07203125,58.73001248330248
2.08003125,58.16830467735225
2.0880312500000002,57.88503321101621
2.0960312500000002,58.70867690010102
2.1040312500000002,61.08704520703977
2.1120312500000002,64.09982261610827
2.1200312500000003,66.86883474977878
2.1280312500000003,69.1206981874193
2.1360312500000003,70.81854716885854
2.1440312500000003,71.9051641883061
2.1520312500000003,72.48785956818469
2.1600312500000003,72.80284639029473
2.1680312500000003,72.90119025202718
2.1760312500000003,72.76395642177852
2.1840312500000003,72.55063384571135
2.1920312500000003,72.43501372238904
2.2000312500000003,72.06237595892489
2.2080312500000003,71.40335995894759
2.2160312500000003,70.69058207735496
2.2240312500000003,70.0592822422388
2.2320312500000004,69.76303432425925
2.2400312500000004,69.55131279835855
2.2480312500000004,69.14831411902165
2.2560312500000004,68.54336965206474
2.2640312500000004,68.11036284017162
2.2720312500000004,68.11505057400579
2.2800312500000004,68.63208313130998
2.2880312500000004,69.75034562187516
2.2960312500000004,70.53396213676845
2.3040312500000004,70.60102004480227
2.3120312500000004,70.16268475664039
2.3200312500000004,69.29297243483501
2.3280312500000004,67.8051439911195
2.3360312500000004,65.61054673112291
2.34403125,62.94635742625667
2.35203125,60.37343122829921
2.36003125,58.69622248718738
2.36803125,57.7917436746393
2.37603125,57.802818518233856
2.38403125,58.87225594138256
2.39203125,60.28748181171041
2.40003125,61.11216544928695
2.40803125,61.57916064753573
2.41603125,61.89209705039054
2.42403125,62.15067826231564
2.43203125,62.48532421559002
2.44003125,62.1171566298285
2.44803125,61.08354380354051
2.45603125,60.69371177309047
2.46403125,60.7027898516015
2.47203125,60.53967232522623
2.48003125,60.30179578034974
2.48803125,59.57104154170675
2.49603125,58.377851733934165
2.50403125,56.559859126748776
2.51203125,55.903025354844225
2.52003125,61.91966692021423
2.52803125,67.99759191283319
2.53603125,71.88150528822969
2.54403125,73.75422061842023
2.55203125,74.36091266400102
2.56003125,74.36682435875818
2.56803125,74.20642291286717
2.57603125,74.18315456021345
2.5840312500000002,74.07111513563841
2.5920312500000002,73.58311503102881
2.6000312500000002,72.86369275624574
2.6080312500000002,72.03664885231245
2.6160312500000003,71.16747302900856
2.6240312500000003,70.42928235640267
2.6320312500000003,70.16866621843187
2.6400312500000003,70.43004198731715
2.6480312500000003,70.86595895289018
2.6560312500000003,70.87665816048145
2.6640312500000003,70.46944656021313
2.6720312500000003,70.11194402758355
2.6800312500000003,69.19301760013654
2.6880312500000003,67.149636039858
2.6960312500000003,64.58204579804823
2.7040312500000003,62.71767425294638
2.7120312500000003,61.84283286510873
2.7200312500000003,61.45320087726782
2.7280312500000004,61.478508107911374
2.7360312500000004,63.46094341730727
2.7440312500000004,66.5148335957623
2.7520312500000004,68.88996762616193
2.7600312500000004,70.28939422059943
2.7680312500000004,71.18258808637238
2.7760312500000004,72.00933786959226
2.7840312500000004,72.59779621437245
2.7920312500000004,72.76424028775253
2.8000312500000004,72.51765845242659
2.8080312500000004,72.0099057289083
2.8160312500000004,71.59238337716596
2.8240312500000004,71.79775680108072
2.8320312500000004,72.57007677816532
2.8400312500000005,73.21162068356605
2.84803125,73.4028818316909
2.85603125,73.05092873983473
2.86403125,72.83314862841273
2.87203125,73.26499313558365
2.88003125,73.36720475914134
2.88803125,73.13512205225875
2.89603125,72.98699397131722
2.90403125,72.7887474318484
2.91203125,72.18905470909412
2.92003125,71.28448517565155
2.92803125,70.14223728955858
2.93603125,69.33634082468647
2.94403125,69.32878214931995
2.95203125,68.88959464819008
2.96003125,67.57765624066101
2.96803125,66.01186697217186
2.97603125,64.21022598620281
2.98403125,61.69475592531698
2.99203125,58.717692161374195
3.00003125,56.58213047898385
3.00803125,55.4427283456473
3.01603125,54.93859160532889
3.02403125,54.26569048307652
3.03203125,53.18469314433155
3.04003125,52.24774688546161
3.04803125,51.50284280114075
3.05603125,50.8068850929551
3.06403125,50.51559748296693
3.07203125,51.637256999263855
3.08003125,53.0652726468749
3.0880312500000002,52.69102166700481
3.0960312500000002,52.08855569745448
3.1040312500000002,52.0430274433086
3.1120312500000002,52.0737928281124
3.1200312500000003,53.56011781571329
3.1280312500000003,55.38171929308092
3.1360312500000003,56.06623028313659
3.1440312500000003,55.717998738871366
3.1520312500000003,54.14739550326963
3.1600312500000003,51.74353670858929
3.1680312500000003,49.62488424126547
3.1760312500000003,49.15100337504959
3.1840312500000003,53.30781814843312
3.1920312500000003,57.09790868881365
3.2000312500000003,58.870966078722134
3.2080312500000003,59.468104266243344
3.2160312500000003,59.90139408235193
3.2240312500000003,60.70930321781815
3.2320312500000004,61.838997492395734
3.2400312500000004,63.035512970031
3.2480312500000004,64.06598778212674
3.2560312500000004,64.86187676451375
3.2640312500000004,65.6075521646943
3.2720312500000004,66.02050634182577
3.2800312500000004,65.42671538500403
3.2880312500000004,63.84437636831937
3.2960312500000004,61.82114348911705
3.3040312500000004,59.47101729271129
3.3120312500000004,57.01314484283566
3.3200312500000004,56.210321623540445
3.3280312500000004,56.03625499387956
3.3360312500000004,54.884294714503625
3.3440312500000005,53.866867061598484
3.3520312500000005,53.66754906241458
3.3600312500000005,54.73731310225237
3.36803125,56.139869366129815
3.37603125,55.986408889031324
3.38403125,54.5890465019603
3.39203125,53.46088365748943
3.40003125,52.31030960630339
3.40803125,55.1598224516725
3.41603125,61.44904576449717
3.42403125,66.75967465126809
3.43203125,70.1393461428647
3.44003125,71.92443138136252
3.44803125,73.00440429565901
3.45603125,73.6322278600995
3.46403125,73.61990879983219
3.47203125,73.25280509687765
3.48003125,72.67976484857344
3.48803125,71.34382997391627
3.49603125,68.67933004418953
3.50403125,65.19759161861954
3.51203125,63.48853600555388
3.52003125,63.58676767166238
3.52803125,63.658888477184796
3.53603125,63.4785034152332
3.54403125,63.46135638158248
3.55203125,63.73023420304415
3.56003125,63.890567018155444
3.56803125,63.70673604933841
3.57603125,63.44700510569062
3.5840312500000002,63.1563262895954
3.5920312500000002,62.98332217013382
3.6000312500000002,63.45181528742543
3.6080312500000002,64.63647065544178
3.6160312500000003,66.31148337476046
3.6240312500000003,68.01767317726475
3.6320312500000003,68.90339651986024
3.6400312500000003,68.74333271581611
3.6480312500000003,68.66426778535818
3.6560312500000003,69.18343878984223
3.6640312500000003,70.02044795381039
3.6720312500000003,70.87145351424276
3.6800312500000003,71.5196715594506
3.6880312500000003,71.9114114541268
3.6960312500000003,71.89410354145893
3.7040312500000003,71.44241542825857
3.7120312500000003,70.78477674906199
3.7200312500000003,70.03228769926851
3.7280312500000004,69.24941849155826
3.7360312500000004,68.15273447573367
3.7440312500000004,66.59674535473775
3.7520312500000004,65.48742108468203
3.7600312500000004,65.42442097912564
3.7680312500000004,65.82264026787925
3.7760312500000004,66.44830300580897
3.7840312500000004,67.11660225032557
3.7920312500000004,67.25258644997318
3.8000312500000004,66.37383102759782
3.8080312500000004,65.23351451923628
3.8160312500000004,64.82590619945621
3.8240312500000004,63.97603926950657
3.8320312500000004,63.225853019163694
3.8400312500000005,64.17433203243155
3.8480312500000005,65.62945523022515
3.8560312500000005,67.01833827782947
3.8640312500000005,67.81926736626622
3.87203125,68.17012075014348
3.88003125,68.84660701761293
3.88803125,69.58659544928176
3.89603125,70.10519702606076
3.90403125,70.4228685731904
3.91203125,70.01103690520017
3.92003125,69.40023419174517
3.92803125,69.4145857773697
3.93603125,69.69545318229049
3.94403125,69.49264391775037
3.95203125,68.39150710613029
3.96003125,66.78840126844614
3.96803125,65.61808111041073
3.97603125,64.67323036299075
3.98403125,63.563751839184164
3.99203125,62.153641662362006
4.00003125,60.349092746532094
4.00803125,59.38449995579638
4.01603125,59.84967555209047
4.02403125,60.49408260130644
4.03203125,61.01017244454302
4.04003125,61.487721511500666
4.04803125,61.87628484518656
4.05603125,62.110090807681644
4.06403125,62.38860381034529
4.07203125,62.740916887066604
4.08003125,62.894808487955885
4.08803125,63.08847865224621
4.09603125,63.49028154531042
4.10403125,64.0493829210448
4.11203125,64.99490621979663
4.12003125,66.33829945164054
4.12803125,67.70847309857939
4.13603125,69.18457987275941
4.14403125,70.96995352779234
4.15203125,72.41509870084346
4.16003125,73.21894556977135
4.16803125,73.39149550562692
4.17603125,73.17443912081498
4.18403125,73.06786904769903
4.19203125,73.1387740420188
4.20003125,73.30307101319964
4.20803125,73.58668146260241
4.21603125,74.0344480678225
4.22403125,74.53171378507038
4.23203125,74.79227387310178
4.24003125,74.70768126544239
4.24803125,74.3709202972767
4.25603125,73.91206151586144
4.26403125,73.20367805382797
4.27203125,72.54378724410209
4.28003125,72.52430250007589
4.28803125,73.11175566464036
4.29603125,73.90354718759744
4.30403125,74.49303605210535
4.31203125,74.4703193202061
4.32003125,73.63935773221162
4.32803125,72.10000865130543
4.3360312500000004,70.86912372828468
4.3440312500000005,71.0865838789193
4.3520312500000005,71.68323637392375
4.3600312500000005,71.8287565407435
4.3680312500000005,71.10547167984714
4.3760312500000005,69.52967208124959
4.3840312500000005,68.12603676700176
4.3920312500000005,67.54941483624994
4.4000312500000005,67.48210724365134
4.4080312500000005,68.07121483709271
4.4160312500000005,68.44911554443675
4.4240312500000005,68.10229384084982
4.4320312500000005,67.6417470927441
4.4400312500000005,66.99474832134426
4.4480312500000005,65.96002503263891
4.4560312500000006,64.57385234057391
4.464031250000001,63.19080776093475
4.472031250000001,62.14823016997528
4.480031250000001,61.252023041344145
4.488031250000001,60.20225738278002
4.496031250000001,58.945986918064946
4.504031250000001,56.5107554316839
4.512031250000001,53.13016427685689
4.520031250000001,49.55962748091928
4.528031250000001,45.52558795516245
4.536031250000001,43.84137562251902
4.544031250000001,42.489088396151374
4.552031250000001,40.963506745263814
4.560031250000001,39.261656383295275
4.568031250000001,38.338688526550484
4.576031250000001,38.0948739355643
4.584031250000001,37.5123674299007
4.592031250000001,37.39902920911068
4.600031250000001,38.81177619553729
4.608031250000001,40.53061973257079
4.616031250000001,41.13127759786141
4.624031250000001,40.88718283984996
