time,intensity
0.032031249999999734,68.4980794103299
0.040031249999999734,69.95740633330936
0.048031249999999734,71.10927501304727
0.056031249999999734,71.83553412156984
0.06403124999999973,72.11378799808115
0.07203124999999974,71.7305373544095
0.08003124999999973,70.57165464381062
0.08803124999999973,68.74574994856171
0.09603124999999973,66.48038403261998
0.10403124999999974,65.21911453109836
0.11203124999999974,66.8577604533858
0.12003124999999973,68.34524545639945
0.12803124999999974,69.05132844062707
0.13603124999999974,70.54733747260433
0.14403124999999972,72.97906187580143
0.15203124999999973,74.7024575180987
0.16003124999999974,75.4580823798615
0.16803124999999974,75.98902146179933
0.17603124999999975,76.35089157598101
0.18403124999999973,75.97882330017006
0.19203124999999974,74.81420391559861
0.20003124999999974,73.57923547589044
0.20803124999999972,73.15855331977431
0.21603124999999973,73.12593877148272
0.22403124999999974,72.14479490171587
0.23203124999999974,69.49587610309273
0.24003124999999975,64.90261822088814
0.24803124999999973,58.33047276160872
0.2560312499999997,51.72418779412077
0.2640312499999997,46.38199562740307
0.2720312499999997,41.87863865707194
0.28003124999999973,40.90571707950111
0.28803124999999974,47.76561101071191
0.29603124999999975,51.87328116536123
0.30403124999999975,51.64659870495805
0.31203124999999976,51.779952229390446
0.32003124999999977,60.3162615034411
0.3280312499999997,67.00144740145244
0.3360312499999997,70.77025735180973
0.34403124999999973,72.91250839823013
0.35203124999999974,73.99108276481454
0.36003124999999975,73.88127969738458
0.36803124999999975,72.53406571708047
0.37603124999999976,71.16162298519347
0.3840312499999997,71.5886862424465
0.3920312499999997,72.75729497433805
0.4000312499999997,73.64321898942222
0.40803124999999973,74.1879188084632
0.41603124999999974,74.44291511910797
0.42403124999999975,74.33711724460123
0.43203124999999976,73.55753180282775
0.44003124999999976,72.04292824388443
0.44803124999999977,70.39934852933504
0.4560312499999997,68.85753196341066
0.46403124999999973,66.91257127326939
0.47203124999999974,64.40238022475168
0.48003124999999974,61.947701409654464
0.48803124999999975,61.0372671311023
0.49603124999999976,61.56085725492393
0.5040312499999997,62.37939051017494
0.5120312499999997,62.2220315800883
0.5200312499999997,60.29422943571535
0.5280312499999997,58.195172980264715
0.5360312499999997,58.26985089911468
0.5440312499999997,59.390983987372856
0.5520312499999998,60.1934293213118
0.5600312499999998,61.37167297583702
0.5680312499999998,63.624472016942136
0.5760312499999998,65.34906114170649
0.5840312499999998,66.55157258583961
0.5920312499999998,66.46211049981582
0.6000312499999998,64.58171813433184
0.6080312499999998,64.60451862966747
0.6160312499999997,70.28957483253163
0.6240312499999997,73.60709692487944
0.6320312499999997,73.71380280534322
0.6400312499999997,71.44128577406542
0.6480312499999997,66.90587044746026
0.6560312499999997,60.79864960007097
0.6640312499999997,57.156115802501134
0.6720312499999997,55.07438832877426
0.6800312499999998,54.61549712588798
0.6880312499999998,56.10426553462128
0.6960312499999998,58.93883998378964
0.7040312499999998,62.091523953093755
0.7120312499999998,64.06453091914648
0.7200312499999998,64.50363787373075
0.7280312499999998,64.05744552671052
0.7360312499999997,63.552348956322945
0.7440312499999997,63.6072115062682
0.7520312499999997,65.24077360875559
0.7600312499999997,68.4031580755957
0.7680312499999997,71.60162206125722
0.7760312499999997,73.53909567150451
0.7840312499999997,74.10639812792832
0.7920312499999997,73.80981692227587
0.8000312499999997,72.90342757226146
0.8080312499999998,72.18844813811653
0.8160312499999998,72.10846057891764
0.8240312499999998,72.08128297164903
0.8320312499999998,71.43261641836722
0.8400312499999998,69.38518758174459
0.8480312499999998,65.93994446715134
0.8560312499999998,63.89382437590727
0.8640312499999998,64.1834260019474
0.8720312499999997,65.39847731611484
0.8800312499999997,68.27827106502059
0.8880312499999997,70.97367874773921
0.8960312499999997,72.05270984343127
0.9040312499999997,72.17968704638506
0.9120312499999997,72.1966628252768
0.9200312499999997,72.12223950493669
0.9280312499999998,71.80240895031478
0.9360312499999998,71.24473462381901
0.9440312499999998,70.50889617676854
0.9520312499999998,68.96363364671564
0.9600312499999998,66.07504738977612
0.9680312499999998,63.07497866907019
0.9760312499999998,62.03428673289662
0.9840312499999998,61.893649175973174
0.9920312499999997,60.58719051769621
1.0000312499999997,57.99213925825103
1.0080312499999997,55.13234374959506
1.0160312499999997,52.862173766687555
1.0240312499999997,51.59421190135938
1.0320312499999997,50.854792439272316
1.0400312499999997,51.43359857008052
1.0480312499999997,60.935157232049555
1.0560312499999998,69.21651270923778
1.0640312499999998,73.32911480123511
1.0720312499999998,74.65739020344499
1.0800312499999998,74.63313983748476
1.0880312499999998,73.95793761828735
1.0960312499999998,73.18835396515584
1.1040312499999998,72.83658581921267
1.1120312499999998,72.28343913141855
1.1200312499999998,70.98222327387086
1.1280312499999998,69.06004927832493
1.1360312499999998,66.34707700222815
1.1440312499999998,62.09945790706626
1.1520312499999998,56.40788838399382
1.1600312499999998,50.999904739518115
1.1680312499999999,46.1381399417058
1.1760312499999999,43.00670625728897
1.1840312499999999,43.32743056131578
1.1920312499999997,44.968704889576436
1.2000312499999997,46.123088586595955
1.2080312499999997,46.309408369898165
1.2160312499999997,46.157739485417764
1.2240312499999997,45.7687355010046
1.2320312499999997,44.97899589676473
1.2400312499999997,45.792493393718125
1.2480312499999997,49.37692114458109
1.2560312499999997,51.99583806009592
1.2640312499999997,53.58622055819254
1.2720312499999997,55.55315282893818
1.2800312499999997,57.4119580432028
1.2880312499999997,58.0738792442081
1.2960312499999997,58.27599824766932
1.3040312499999998,58.23090782899592
1.3120312499999998,58.91673399928698
1.3200312499999998,61.394720950953996
1.3280312499999998,64.24847271855444
1.3360312499999998,66.63139970155343
1.3440312499999998,68.18354332989324
1.3520312499999998,69.19725129759604
1.3600312499999998,69.95272612737321
1.3680312499999998,70.54889112559496
1.3760312499999998,71.0069906765159
1.3840312499999998,71.43491100513886
1.3920312499999998,72.00460689693139
1.4000312499999998,72.70546284796819
1.4080312499999998,73.27504787888915
1.4160312499999999,73.52929039981176
1.4240312499999999,73.40767010014345
1.4320312499999999,72.88858037612214
1.4400312499999997,72.06731087255766
1.4480312499999997,70.93988521839418
1.4560312499999997,69.13031380220252
1.4640312499999997,66.0815700286494
1.4720312499999997,61.484510175755325
1.4800312499999997,56.67058859399174
1.4880312499999997,53.70056278341607
1.4960312499999997,51.44706128503031
1.5040312499999997,49.03755054566381
1.5120312499999997,47.3231058653911
1.5200312499999997,46.988835411053735
1.5280312499999997,46.82523817292469
1.5360312499999997,47.39041043568996
1.5440312499999997,49.99973858729348
1.5520312499999998,55.569984993116364
1.5600312499999998,63.41800914158348
1.5680312499999998,68.7540426727005
1.5760312499999998,71.96792704923679
1.5840312499999998,73.60921162792944
1.5920312499999998,74.09528734195969
1.6000312499999998,74.12763285593532
1.6080312499999998,74.04877893892245
1.6160312499999998,73.92694490036357
1.6240312499999998,73.82873573277821
1.6320312499999998,73.86152683313694
1.6400312499999998,74.01920254891719
1.6480312499999998,74.20477082867765
1.6560312499999998,74.44384943190667
1.6640312499999999,74.76312312905407
1.6720312499999999,75.11311376457758
1.6800312499999999,75.45979711112733
1.6880312499999999,75.74105472946866
1.6960312499999999,75.91039104866171
1.7040312499999997,75.94455531044248
1.7120312499999997,75.81377611866452
1.7200312499999997,75.39907311071975
1.7280312499999997,74.35482000821408
1.7360312499999997,71.88000301073197
1.7440312499999997,67.37941029657448
1.7520312499999997,63.67961526777166
1.7600312499999997,63.7392194687309
1.7680312499999997,64.03786642966037
1.7760312499999997,63.92760976412744
1.7840312499999997,63.586706076144495
1.7920312499999997,63.27773930749249
1.8000312499999997,62.84076762276403
1.8080312499999998,61.99814329857269
1.8160312499999998,60.83781630810955
1.8240312499999998,59.357422620981175
1.8320312499999998,57.315851103010125
1.8400312499999998,54.68221671209426
1.8480312499999998,51.78255049328922
1.8560312499999998,51.21171526672732
1.8640312499999998,51.668019042979964
1.8720312499999998,50.29959543203298
1.8800312499999998,48.43362582894297
1.8880312499999998,52.59562620787854
1.8960312499999998,58.408811319975754
1.9040312499999998,59.779469736862474
1.9120312499999998,56.661794390630725
1.9200312499999999,50.22398732386289
1.9280312499999999,45.341001152705246
1.9360312499999999,53.50912199850437
1.9440312499999999,59.28300118129823
1.9520312499999997,60.201877080514315
1.9600312499999997,58.80323665943366
1.9680312499999997,61.034824116181944
1.9760312499999997,66.58812142428089
1.9840312499999997,70.97007805595584
1.9920312499999997,73.06914320268551
2.0000312499999997,73.57300731900506
2.0080312499999997,73.0804915346707
2.0160312499999997,71.78665684820734
2.0240312499999997,70.20615805586083
2.0320312499999997,69.4291946962924
2.0400312499999997,69.56755665220574
2.0480312499999997,70.21875398460168
2.0560312499999998,71.19315875672922
2.0640312499999998,71.6603813055069
2.0720312499999998,71.24932164342029
2.0800312499999998,70.12508927775447
2.08803125,68.59693152307051
2.09603125,66.97401163254783
2.10403125,65.35159439361357
2.11203125,64.04607186874519
2.12003125,63.02306821483189
2.12803125,62.1316856345659
2.13603125,61.542980055027314
2.14403125,61.10290639551309
2.15203125,60.81491489089827
2.16003125,60.548298829300734
2.16803125,60.499991761504255
2.17603125,60.66834591252476
2.18403125,60.59001941898771
2.19203125,60.616019770794736
2.20003125,60.66800395323245
2.20803125,60.40644095236145
2.21603125,59.96594948420035
2.22403125,59.76671126163032
2.23203125,60.14946801373131
2.24003125,60.54273939785109
2.24803125,60.493089071592095
2.25603125,60.510079876913395
2.26403125,61.352179324623286
2.27203125,63.579577130441976
2.28003125,66.72174054053994
2.28803125,69.9225109855684
2.29603125,71.8589151824502
2.30403125,71.94896800014918
2.31203125,70.9582610442953
2.32003125,70.5222036728102
2.32803125,70.80035401049702
2.33603125,71.16411122790876
2.3440312499999996,71.58620138841404
2.3520312499999996,71.93495833979986
2.3600312499999996,72.03407646966326
2.3680312499999996,71.65580882745465
2.3760312499999996,70.29853747404543
2.3840312499999996,67.49984182977258
2.3920312499999996,63.35080037893405
2.4000312499999996,58.98133804281228
2.4080312499999996,55.26275303756218
2.4160312499999996,51.38869339826013
2.4240312499999996,48.26872362372015
2.4320312499999996,49.05900270525963
2.4400312499999997,52.500803560292795
2.4480312499999997,55.60904298585246
2.4560312499999997,57.37889455578934
2.4640312499999997,57.89778632320548
2.4720312499999997,58.62055676379026
2.4800312499999997,59.60319587597727
2.4880312499999997,60.465638127839526
2.4960312499999997,61.67109795333406
2.5040312499999997,62.755923846094284
2.5120312499999997,64.17451212296652
2.5200312499999997,65.94915124371607
2.5280312499999997,67.25188645858717
2.5360312499999997,67.93192011459783
2.5440312499999997,68.28406961611063
2.5520312499999998,68.25112351768199
2.5600312499999998,68.53679013879653
2.5680312499999998,68.35824495157665
2.5760312499999998,66.83142451874382
2.58403125,65.01004882383535
2.59203125,61.91372098283998
2.60003125,59.99674811075422
2.60803125,67.30976762814727
2.61603125,72.26411205283074
2.62403125,74.01382326332521
2.63203125,74.03842423082752
2.64003125,73.51315151272412
2.64803125,72.57741674613305
2.65603125,71.53731793811012
2.66403125,71.01012760056187
2.67203125,70.81435112279691
2.68003125,70.52164739942093
2.68803125,70.15677542337599
2.69603125,69.91382935374457
2.70403125,69.6135861675648
2.71203125,68.83956164794154
2.72003125,67.95404644606174
2.72803125,67.37225894513357
2.73603125,65.91516032153231
2.74403125,62.09880671211022
2.75203125,55.56689598079953
2.76003125,48.91599746397578
2.76803125,47.60295811942275
2.77603125,52.10016599995316
2.78403125,53.40125088692212
2.79203125,51.5605789107535
2.80003125,53.79336980887751
2.80803125,57.29814833748223
2.81603125,59.745560227098466
2.82403125,61.95449426905987
2.83203125,64.18842115531159
2.84003125,66.46393523495905
2.8480312499999996,68.66750852505132
2.8560312499999996,70.63689034656512
2.8640312499999996,71.64664495214977
2.8720312499999996,70.73523652786565
2.8800312499999996,67.5448643401327
2.8880312499999996,64.413579031678
2.8960312499999996,63.82663835617648
2.9040312499999996,63.33398366728707
2.9120312499999996,62.46425203558033
2.9200312499999996,61.2944652886886
2.9280312499999996,59.88392086755778
2.9360312499999996,58.090092187077374
2.9440312499999997,56.23408193279613
2.9520312499999997,55.84782882406303
2.9600312499999997,60.03089984158138
2.9680312499999997,66.56974790277178
2.9760312499999997,70.75685654840623
2.9840312499999997,72.6421414255486
2.9920312499999997,73.19631256157136
3.0000312499999997,73.36742293051479
3.0080312499999997,73.57769984112058
3.0160312499999997,73.72360747357891
3.0240312499999997,73.82420501437366
3.0320312499999997,73.95798003423099
3.0400312499999997,74.09404205858975
3.0480312499999997,74.08973965646123
3.0560312499999998,74.01759331842301
3.0640312499999998,73.98609830028944
3.0720312499999998,73.99154661990876
3.0800312499999998,73.73344277927855
3.08803125,72.92969239702371
3.09603125,72.29196142286632
3.10403125,72.39150901585946
3.11203125,72.55024767049845
3.12003125,72.0334600902905
3.12803125,70.57653165513918
3.13603125,68.80999969719066
3.14403125,68.04558427188097
3.15203125,68.287144190319
3.16003125,69.17931508262596
3.16803125,70.55207052278877
3.17603125,71.93922225031197
3.18403125,72.57739025277684
3.19203125,72.60460398868577
3.20003125,72.45849166680925
3.20803125,72.10004755491829
3.21603125,71.33581523570795
3.22403125,70.07444308642386
3.23203125,68.39611848658376
3.24003125,66.75624927331612
3.24803125,65.69943563068331
3.25603125,64.42747808594316
3.26403125,62.83271202813736
3.27203125,61.58714575983798
3.28003125,60.80834711899505
3.28803125,59.77511358297738
3.29603125,57.993727107062895
3.30403125,56.19043377163606
3.31203125,54.96546196206964
3.32003125,53.96949164049923
3.32803125,52.607257563812375
3.33603125,53.90621621508795
3.34403125,59.399848964173856
3.35203125,65.79626909497966
3.36003125,70.98816277415818
3.3680312499999996,73.58461914646183
3.3760312499999996,74.44620261691215
3.3840312499999996,74.22996162674434
3.3920312499999996,73.44712211122946
3.4000312499999996,73.1145072616846
3.4080312499999996,72.72157037219534
3.4160312499999996,71.99258396779825
3.4240312499999996,71.73377078290348
3.4320312499999996,71.78081803190547
3.4400312499999997,71.82615533716073
3.4480312499999997,72.07860214451661
3.4560312499999997,72.38080967716117
3.4640312499999997,72.4972491475082
3.4720312499999997,72.5223421032828
3.4800312499999997,72.55840024596966
3.4880312499999997,72.49024372279032
3.4960312499999997,72.28691610659396
3.5040312499999997,72.19078933451965
3.5120312499999997,72.2492970122251
3.5200312499999997,72.2376245935679
3.5280312499999997,72.07669949095978
3.5360312499999997,71.85306651646981
3.5440312499999997,71.71181434122003
3.5520312499999998,71.64961512873823
3.5600312499999998,71.62588947723394
3.5680312499999998,71.62001109837996
3.5760312499999998,71.59160799735788
3.58403125,71.52942490832447
3.59203125,71.39591242072753
3.60003125,71.24185292219768
3.60803125,71.24842768821681
3.61603125,71.34694273875795
3.62403125,71.2485263596829
3.63203125,70.74014890812296
3.64003125,69.69525663165122
3.64803125,68.30261720786805
3.65603125,66.6493208244775
3.66403125,64.31541405149889
3.67203125,61.19943223037622
3.68003125,59.2686218614071
3.68803125,59.7095353565864
3.69603125,60.47271701268215
3.70403125,60.96522214189169
3.71203125,61.187877865565106
3.72003125,61.46201021196558
3.72803125,62.66204953337113
3.73603125,64.78229820495753
3.74403125,66.21885759516408
3.75203125,65.28746269176362
3.76003125,61.06312221963955
3.76803125,54.32719834444232
3.77603125,48.40422794143851
3.78403125,43.761230945466004
3.79203125,40.31857386173695
3.80003125,38.34410658661125
3.80803125,37.519845502401765
3.81603125,37.78793429668642
3.82403125,39.00183567025416
3.83203125,40.42338042375156
3.84003125,41.829156102619336
3.84803125,42.574763692520136
3.85603125,42.5183989690727
3.86403125,42.23077053523735
3.8720312499999996,42.288596413177004
3.8800312499999996,43.01898243885365
3.8880312499999996,44.04549383894469
3.8960312499999996,44.36837900824487
3.9040312499999996,43.932085980147875
3.9120312499999996,43.823766736559634
3.9200312499999996,44.03157297124095
3.9280312499999996,43.839828631739664
3.9360312499999996,43.31382654346988
3.9440312499999997,42.89125624573056
3.9520312499999997,42.9254976229975
3.9600312499999997,43.28786062608639
3.9680312499999997,43.776625304026595
3.9760312499999997,43.61015664164487
3.9840312499999997,43.219276105000226
3.9920312499999997,43.26391869077882
4.000031249999999,42.93177579191581
4.00803125,42.82512614168603
4.016031249999999,43.35732447244344
4.02403125,43.99878499070813
4.032031249999999,44.19661256866333
4.04003125,43.368476950041625
4.048031249999999,43.604851404125434
4.05603125,44.16772349407328
4.064031249999999,43.99448343557108
4.07203125,43.600964107934736
4.080031249999999,42.269417468765276
4.08803125,41.21690007822026
4.096031249999999,40.42213529779319
4.10403125,38.64325874810605
4.112031249999999,36.721757053405874
4.12003125,36.38561650648055
4.128031249999999,36.7203431272886
4.13603125,36.02391214492817
4.144031249999999,34.825130251679106
4.15203125,34.79750169155657
4.160031249999999,34.608521235998936
4.16803125,33.72923308276418
4.176031249999999,32.63505009671948
4.18403125,30.39237562484115
4.192031249999999,28.487594868760763
4.20003125,28.449814052680267
4.2080312499999994,28.25651784692605
4.21603125,27.64105201491452
4.2240312499999995,26.78087904778037
4.23203125,26.235483186922636
4.2400312499999995,26.362465313580334
4.24803125,26.171037000825127
4.2560312499999995,26.524221788653577
4.26403125,26.5279702597089
4.2720312499999995,25.58723576917444
4.28003125,24.987749166150373
4.2880312499999995,26.047123057634867
4.29603125,27.22761264069829
4.3040312499999995,33.823598861723845
4.31203125,44.56338236339371
4.3200312499999995,54.68340238633647
4.32803125,61.43453010156279
4.33603125,65.56898286488226
4.3440312500000005,68.18105273077992
4.35203125,70.33245247693004
4.3600312500000005,72.21920627518655
4.36803125,73.03049049863824
4.3760312500000005,72.80716956819593
4.38403125,71.86965553001606
4.3920312500000005,70.8024846144552
4.40003125,70.32735933064234
4.4080312500000005,70.23627247483151
4.41603125,70.36317840021565
4.4240312500000005,70.71735904852994
4.43203125,71.17500692498976
4.4400312500000005,71.40885402269166
4.44803125,71.09265043027648
4.4560312500000006,70.1724192835645
4.46403125,68.56438051332051
4.472031250000001,65.96237153790685
4.48003125,62.08179429085974
4.488031250000001,57.53010952724337
4.49603125,53.638409078372206
4.504031250000001,51.630039025896565
4.51203125,53.58762048496796
4.520031250000001,56.89072415495011
4.52803125,59.459213152630255
4.536031250000001,61.29876516428368
4.54403125,62.3612399836729
4.552031250000001,63.15380813256492
4.56003125,63.49344963987656
4.568031250000001,63.877972941287375
4.57603125,65.26807231816727
4.584031250000001,66.67092405077155
4.59203125,68.16594845631856
4.600031250000001,68.83726543344997
4.60803125,68.42889147950127
4.616031250000001,68.33973232898546
4.62403125,68.81087268656893
4.632031250000001,69.33408689914347
4.64003125,68.83870036917747
