time,intensity
0.032031249999999734,62.79311123096589
0.040031249999999734,63.41998480355375
0.048031249999999734,63.775457792834544
0.056031249999999734,64.16978681294195
0.06403124999999973,65.27747625597485
0.07203124999999974,66.7448319782252
0.08003124999999973,67.99642153195792
0.08803124999999973,69.03465318897621
0.09603124999999973,69.63819727583999
0.10403124999999974,69.68284511588875
0.11203124999999974,69.18470042624932
0.12003124999999973,68.26074987287465
0.12803124999999974,67.3803279625867
0.13603124999999974,66.62530273281911
0.14403124999999972,65.92892267495375
0.15203124999999973,64.95325095882006
0.16003124999999974,64.19161027920231
0.16803124999999974,63.358913261689025
0.17603124999999975,63.510957153928516
0.18403124999999973,63.49483865367711
0.19203124999999974,63.64547952820391
0.20003124999999974,63.6815024937318
0.20803124999999972,63.86027307743636
0.21603124999999973,64.30450575924161
0.22403124999999974,65.18303644744667
0.23203124999999974,65.7740942558054
0.24003124999999975,66.25929959125493
0.24803124999999973,66.68037111673202
0.2560312499999997,66.81374608040758
0.2640312499999997,67.49612803340844
0.2720312499999997,68.6616680484051
0.28003124999999973,69.42690514265814
0.28803124999999974,69.6870300188076
0.29603124999999975,69.78145023989428
0.30403124999999975,69.61279302868431
0.31203124999999976,69.52310864016236
0.32003124999999977,70.10468076985185
0.3280312499999997,71.11519770879734
0.3360312499999997,72.12315347945534
0.34403124999999973,72.64617838131045
0.35203124999999974,72.55041497327143
0.36003124999999975,72.39500580163953
0.36803124999999975,72.84410997441665
0.37603124999999976,73.98616685678371
0.3840312499999997,75.19008023611676
0.3920312499999997,76.01372279649554
0.4000312499999997,76.24254271102787
0.40803124999999973,75.29631246208206
0.41603124999999974,73.09406257228932
0.42403124999999975,71.4675550746544
0.43203124999999976,71.28560485496378
0.44003124999999976,71.45496301714482
0.44803124999999977,71.68115422521895
0.4560312499999997,71.93804788186651
0.46403124999999973,71.88670617059971
0.47203124999999974,71.3440385400146
0.48003124999999974,71.08217353721022
0.48803124999999975,71.20648688405566
0.49603124999999976,71.66771133476479
0.5040312499999997,72.22146594861626
0.5120312499999997,72.10764802412926
0.5200312499999997,71.69970173915802
0.5280312499999997,72.30515106532553
0.5360312499999997,72.76564968460534
0.5440312499999997,72.39387806612942
0.5520312499999998,72.02492132009785
0.5600312499999998,72.14498763367935
0.5680312499999998,72.37131148877744
0.5760312499999998,72.54154365338911
0.5840312499999998,72.59326609669272
0.5920312499999998,72.67769922998869
0.6000312499999998,72.61115658009683
0.6080312499999998,72.59313174921341
0.6160312499999997,72.68288978089303
0.6240312499999997,72.7315695214712
0.6320312499999997,73.05465453695979
0.6400312499999997,73.85286815401385
0.6480312499999997,74.88662908590088
0.6560312499999997,75.77684855481392
0.6640312499999997,76.25841723939013
0.6720312499999997,76.40731075774767
0.6800312499999998,76.7339624922939
0.6880312499999998,77.52748657784628
0.6960312499999998,78.37256498813494
0.7040312499999998,79.08260366899556
0.7120312499999998,79.5404538451632
0.7200312499999998,79.6688898918365
0.7280312499999998,79.4604039978525
0.7360312499999997,78.92149286763302
0.7440312499999997,78.44300558615572
0.7520312499999997,77.94680289384911
0.7600312499999997,76.69259156168368
0.7680312499999997,75.29678374166635
0.7760312499999997,74.59898880490134
0.7840312499999997,74.21551704931511
0.7920312499999997,74.11608624288911
0.8000312499999997,74.19643079548598
0.8080312499999998,73.9460577546531
0.8160312499999998,74.00059276897287
0.8240312499999998,74.32894695793907
0.8320312499999998,74.16988495901109
0.8400312499999998,72.89746395920245
0.8480312499999998,71.02358355128082
0.8560312499999998,70.02293114601532
0.8640312499999998,69.54997511564751
0.8720312499999997,67.89813824870859
0.8800312499999997,64.68880635457766
0.8880312499999997,64.21603478655811
0.8960312499999997,67.18104096541175
0.9040312499999997,68.66234610135015
0.9120312499999997,69.42429645849722
0.9200312499999997,70.59625994366976
0.9280312499999998,71.6887498097209
0.9360312499999998,72.22737974496013
0.9440312499999998,71.74041513111051
0.9520312499999998,71.96765118715521
0.9600312499999998,73.14713827651539
0.9680312499999998,72.81660710853112
0.9760312499999998,71.30786104257284
0.9840312499999998,70.6599141595351
0.9920312499999997,70.69083000074649
1.0000312499999997,69.50374252790334
1.0080312499999997,68.25542287792715
1.0160312499999997,67.1824130787922
1.0240312499999997,66.95296404310903
1.0320312499999997,66.88805248954272
1.0400312499999997,67.11006902937757
1.0480312499999997,67.26387483017396
1.0560312499999998,68.06435780592905
1.0640312499999998,68.68118178212899
1.0720312499999998,69.21382152595665
1.0800312499999998,69.95491727087132
1.0880312499999998,70.17345055002616
1.0960312499999998,70.15036362640505
1.1040312499999998,69.6203640625188
1.1120312499999998,68.13677640810737
1.1200312499999998,68.9322066740667
1.1280312499999998,68.42458839267509
1.1360312499999998,66.89985280403921
1.1440312499999998,67.21563066816272
1.1520312499999998,66.12874395566104
1.1600312499999998,65.99366970621502
1.1680312499999999,66.74225484158121
1.1760312499999999,67.43802449005172
1.1840312499999999,68.13188934458003
1.1920312499999997,68.68676293197862
1.2000312499999997,69.60994285129819
1.2080312499999997,70.05840325284592
1.2160312499999997,69.57317262163622
1.2240312499999997,68.97361968277883
1.2320312499999997,68.6283148717758
1.2400312499999997,69.12053737392748
1.2480312499999997,69.54268809468383
1.2560312499999997,68.48770998973248
1.2640312499999997,67.2443523791847
1.2720312499999997,67.13423518708423
1.2800312499999997,67.1946944997857
1.2880312499999997,66.88243432482852
1.2960312499999997,66.63176789492228
1.3040312499999998,67.09026076558389
1.3120312499999998,67.26509723754694
1.3200312499999998,66.82402823109453
1.3280312499999998,66.54670516661623
1.3360312499999998,66.4263085734002
1.3440312499999998,66.09177554771398
1.3520312499999998,64.9878646886949
1.3600312499999998,64.16385750091462
1.3680312499999998,64.69328032050213
1.3760312499999998,65.02784911428067
1.3840312499999998,64.90760834220646
1.3920312499999998,64.7311799094185
1.4000312499999998,64.63682151588014
1.4080312499999998,64.71119719295012
1.4160312499999999,64.8017860367769
1.4240312499999999,64.97143376285666
1.4320312499999999,65.17420371723827
1.4400312499999997,65.30884408652213
1.4480312499999997,65.64067891850242
1.4560312499999997,66.61906576543774
1.4640312499999997,66.48075030296062
1.4720312499999997,66.15013072041135
1.4800312499999997,66.83226772509943
1.4880312499999997,67.35734358675289
1.4960312499999997,67.27714130784176
1.5040312499999997,67.36875988643168
1.5120312499999997,68.0979071114677
1.5200312499999997,67.60104235815861
1.5280312499999997,64.69574838390761
1.5360312499999997,59.872331355777646
1.5440312499999997,55.92459702695459
1.5520312499999998,54.904459127082205
1.5600312499999998,52.54497398376895
1.5680312499999998,51.26151298630564
1.5760312499999998,55.303285827388216
1.5840312499999998,58.142585143092205
1.5920312499999998,58.30879626899572
1.6000312499999998,57.103141235063106
1.6080312499999998,55.350635164183906
1.6160312499999998,54.55234838653016
1.6240312499999998,57.96240849225835
1.6320312499999998,62.96230657080365
1.6400312499999998,65.7343962354128
1.6480312499999998,66.26275453394975
1.6560312499999998,66.09351502993516
1.6640312499999999,66.63439173578188
1.6720312499999999,67.15045344896077
1.6800312499999999,67.75936481322407
1.6880312499999999,68.24470097726675
1.6960312499999999,67.85764892398123
1.7040312499999997,67.69452462826024
1.7120312499999997,67.47856768304841
1.7200312499999997,64.98214222853414
1.7280312499999997,63.6287938083482
1.7360312499999997,64.83845740625436
1.7440312499999997,63.55302825221442
1.7520312499999997,59.123848578776226
1.7600312499999997,54.806209503177776
1.7680312499999997,53.289469687264315
1.7760312499999997,51.76183832309397
1.7840312499999997,51.09180862417821
1.7920312499999997,50.95071154153251
1.8000312499999997,50.0042901329569
1.8080312499999998,48.868438833097095
1.8160312499999998,49.28004925161698
1.8240312499999998,51.21443162203417
1.8320312499999998,51.88481538581357
1.8400312499999998,50.444685482696485
1.8480312499999998,47.8288390094151
1.8560312499999998,46.68154763057201
1.8640312499999998,46.81324412299473
1.8720312499999998,48.254208207769594
1.8800312499999998,49.28225414662188
1.8880312499999998,49.024662211999825
1.8960312499999998,49.2856777614054
1.9040312499999998,51.16413327197926
1.9120312499999998,52.43590673158285
1.9200312499999999,52.85690635162417
1.9280312499999999,52.638264087108944
1.9360312499999999,51.81046773933008
1.9440312499999999,51.00463889743925
1.9520312499999997,50.33171051101081
1.9600312499999997,50.1477872736689
1.9680312499999997,49.93579911416548
1.9760312499999997,48.649187410625046
1.9840312499999997,48.83974920236254
1.9920312499999997,49.85585901223174
2.0000312499999997,48.828304329729335
2.0080312499999997,48.795556597191236
2.0160312499999997,50.43040100320228
2.0240312499999997,51.0350481958086
2.0320312499999997,49.00310918655073
2.0400312499999997,50.41819732392326
2.0480312499999997,53.59118624957759
2.0560312499999998,52.83354869918156
2.0640312499999998,50.19109153458314
2.0720312499999998,49.04039427598303
2.0800312499999998,47.51611222437643
2.08803125,45.47380077743499
2.09603125,44.16028597874372
2.10403125,44.05452666653903
2.11203125,44.7884754989083
2.12003125,45.98318276157546
2.12803125,44.19225401987876
2.13603125,52.71787532443093
2.14403125,61.13481910661436
2.15203125,66.29698041194153
2.16003125,68.79057400143218
2.16803125,69.91518399344774
2.17603125,70.30054934628944
2.18403125,69.61644037836534
2.19203125,67.74335280950878
2.20003125,64.54692498645548
2.20803125,60.297462654267235
2.21603125,57.30790573936875
2.22403125,56.01449453659036
2.23203125,55.34465844789519
2.24003125,55.71800247355651
2.24803125,56.60677075619023
2.25603125,56.961419005594024
2.26403125,56.88225139859959
2.27203125,56.12205127090157
2.28003125,55.07253289537122
2.28803125,60.395631408301284
2.29603125,67.29217573514616
2.30403125,70.788533370717
2.31203125,71.72188332784057
2.32003125,71.90671391960605
2.32803125,71.82259433022988
2.33603125,71.03113551970966
2.3440312499999996,69.89480024858273
2.3520312499999996,68.89226374455257
2.3600312499999996,68.4007349441226
2.3680312499999996,68.3508275051514
2.3760312499999996,67.84217605671645
2.3840312499999996,67.77302744588867
2.3920312499999996,68.00227965990459
2.4000312499999996,67.57513634156274
2.4080312499999996,67.9707237914243
2.4160312499999996,68.74097940308242
2.4240312499999996,69.04739524650384
2.4320312499999996,70.03728621933388
2.4400312499999997,71.06267421524939
2.4480312499999997,71.85295088606662
2.4560312499999997,72.35557861161772
2.4640312499999997,72.57199773411598
2.4720312499999997,72.76499695366051
2.4800312499999997,73.12420798689608
2.4880312499999997,73.47960541078638
2.4960312499999997,73.92518964520372
2.5040312499999997,74.50088559822633
2.5120312499999997,74.55335787646099
2.5200312499999997,73.93563467961815
2.5280312499999997,72.85415246590574
2.5360312499999997,71.61682178012919
2.5440312499999997,70.4223954420917
2.5520312499999998,69.06907523265085
2.5600312499999998,68.05414614918034
2.5680312499999998,67.53203093870943
2.5760312499999998,66.95810101253166
2.58403125,66.32207556790858
2.59203125,65.76532194794981
2.60003125,65.5468753042206
2.60803125,65.53483982308039
2.61603125,66.1007630717742
2.62403125,66.54370793392191
2.63203125,66.86210968039357
2.64003125,67.15451704054276
2.64803125,66.20098112580666
2.65603125,64.00343643858626
2.66403125,60.79068378336865
2.67203125,57.32426906609676
2.68003125,55.3896022092389
2.68803125,55.59708071854513
2.69603125,55.604667679551554
2.70403125,53.43596242793468
2.71203125,50.05046729825692
2.72003125,49.80273155677645
2.72803125,50.89437750359014
2.73603125,54.43559009442459
2.74403125,62.30849678279122
2.75203125,67.09333754631916
2.76003125,69.20594189944283
2.76803125,69.93300519262606
2.77603125,70.00144245036125
2.78403125,69.93780388391694
2.79203125,69.80026154677199
2.80003125,69.90822533687219
2.80803125,70.18768928421414
2.81603125,70.2814833612781
2.82403125,70.4724706398226
2.83203125,70.839399235028
2.84003125,71.11546354809826
2.8480312499999996,70.98053913235916
2.8560312499999996,70.23094104990264
2.8640312499999996,68.87238991501319
2.8720312499999996,66.36356659148684
2.8800312499999996,62.332218778380735
2.8880312499999996,57.294448051395015
2.8960312499999996,53.721760148145094
2.9040312499999996,54.19129895526939
2.9120312499999996,57.10585836380692
2.9200312499999996,57.95906449730063
2.9280312499999996,60.66793939307991
2.9360312499999996,67.23965195272805
2.9440312499999997,70.5068402834267
2.9520312499999997,70.76970653423255
2.9600312499999997,69.6633998392337
2.9680312499999997,68.78454652329793
2.9760312499999997,68.1568984489873
2.9840312499999997,67.50390428964387
2.9920312499999997,67.48701051894987
3.0000312499999997,67.32187600177969
3.0080312499999997,68.63250739066841
3.0160312499999997,68.55485420039582
3.0240312499999997,66.86484059387608
3.0320312499999997,66.10694209750586
3.0400312499999997,64.27682911553761
3.0480312499999997,62.25158588352326
3.0560312499999998,63.47425724513077
3.0640312499999998,64.36919401688434
3.0720312499999998,64.5972291483169
3.0800312499999998,64.87469066195673
3.08803125,65.04415047212746
3.09603125,65.10909644846072
3.10403125,64.90986007671657
3.11203125,64.3332051298039
3.12003125,63.16252999171256
3.12803125,61.119894752715076
3.13603125,58.462613359388186
3.14403125,55.60924011234378
3.15203125,52.37138990834963
3.16003125,49.15146824167366
3.16803125,50.620723242503445
3.17603125,59.896825773300975
3.18403125,66.74457037543938
3.19203125,69.62310228314112
3.20003125,70.32505145056578
3.20803125,70.4863632046975
3.21603125,70.8353813534685
3.22403125,71.57973186887372
3.23203125,72.06735890606474
3.24003125,72.23437028397007
3.24803125,72.33471054150692
3.25603125,72.030275418114
3.26403125,72.19361890874364
3.27203125,72.27459309473701
3.28003125,71.7953698148044
3.28803125,71.54522568850896
3.29603125,71.28370822925328
3.30403125,71.0491731340073
3.31203125,71.08315823843515
3.32003125,71.44272951571024
3.32803125,72.09699828814169
3.33603125,72.78368461766772
3.34403125,73.26871326284235
3.35203125,73.23551193050636
3.36003125,72.10405802380998
3.3680312499999996,69.7268840554654
3.3760312499999996,66.47365918550398
3.3840312499999996,62.53763214827423
3.3920312499999996,58.83275004364202
3.4000312499999996,57.01495172186253
3.4080312499999996,56.24228505147375
3.4160312499999996,55.13430336216172
3.4240312499999996,52.87940050019309
3.4320312499999996,50.60504769966033
3.4400312499999997,49.9465030626518
3.4480312499999997,50.003460248067945
3.4560312499999997,50.5974932365191
3.4640312499999997,51.246370395101465
3.4720312499999997,51.54035351889834
3.4800312499999997,51.695298058536075
3.4880312499999997,51.81903772689935
3.4960312499999997,54.17136649479257
3.5040312499999997,62.12321251979111
3.5120312499999997,67.59481771435057
3.5200312499999997,69.43939755220458
3.5280312499999997,69.5793882083323
3.5360312499999997,69.29531883156214
3.5440312499999997,68.4741730297343
3.5520312499999998,68.64280132521634
3.5600312499999998,69.10736634241366
3.5680312499999998,69.46913181907023
3.5760312499999998,70.206197936315
3.58403125,70.21708577349904
3.59203125,70.69450032786902
3.60003125,71.24043970857683
3.60803125,71.32963669018596
3.61603125,71.58549499268645
3.62403125,71.87331172552729
3.63203125,72.11622310088656
3.64003125,72.24892473907533
3.64803125,72.07828473196676
3.65603125,71.60706010864499
3.66403125,70.83899369551082
3.67203125,70.14418902096934
3.68003125,69.79870721431872
3.68803125,69.83950996051615
3.69603125,70.10072344696886
3.70403125,70.3498557460259
3.71203125,70.4108200747225
3.72003125,70.40791990545435
3.72803125,70.10401727736793
3.73603125,69.24933089727149
3.74403125,67.95101416485619
3.75203125,65.72662398338831
3.76003125,62.3137039963588
3.76803125,58.6578207748368
3.77603125,55.81548752315972
3.78403125,53.704866665729526
3.79203125,53.53280679161654
3.80003125,54.74375681199533
3.80803125,55.142635718040225
3.81603125,54.464761847034914
3.82403125,56.123692545385
3.83203125,62.964222816380996
3.84003125,68.36988353345892
3.84803125,70.03259710614398
3.85603125,69.54782408859985
3.86403125,68.57762668515204
3.8720312499999996,67.73812493479055
3.8800312499999996,66.8730386092593
3.8880312499999996,65.13199642440668
3.8960312499999996,62.28677389139766
3.9040312499999996,60.04945265766973
3.9120312499999996,59.66684764773219
3.9200312499999996,61.27977577360498
3.9280312499999996,63.03427250641533
3.9360312499999996,63.76536124457058
3.9440312499999997,63.30711885605765
3.9520312499999997,62.04727244781711
3.9600312499999997,59.92398943740727
3.9680312499999997,56.54104084450498
3.9760312499999997,53.49784098240532
3.9840312499999997,58.16124925365617
3.9920312499999997,64.50898790106518
4.000031249999999,67.31650319215794
4.00803125,67.61382960441453
4.016031249999999,67.53737611430199
4.02403125,67.67461405166961
4.032031249999999,68.42985407255779
4.04003125,69.00305567724456
4.048031249999999,69.21415962061678
4.05603125,68.5214708028506
4.064031249999999,66.307278017214
4.07203125,62.701128884959196
4.080031249999999,58.5569306896058
4.08803125,54.663676283369554
4.096031249999999,53.35008962870019
4.10403125,56.958212116175616
4.112031249999999,60.55137694887051
4.12003125,61.752705028594974
4.128031249999999,64.58938736192704
4.13603125,68.50983643745565
4.144031249999999,70.57276859539857
4.15203125,71.1593197677666
4.160031249999999,70.8282278535344
4.16803125,70.08940366838375
4.176031249999999,69.46117455754714
4.18403125,69.06005610198459
4.192031249999999,68.20578300998018
4.20003125,66.31277529482853
4.2080312499999994,63.043496654744395
4.21603125,58.70124443633598
4.2240312499999995,55.78726833370623
4.23203125,54.223527513710195
4.2400312499999995,51.264276379661204
4.24803125,48.01976262549027
4.2560312499999995,46.37824735986405
4.26403125,47.82464892729159
4.2720312499999995,50.05012477769023
4.28003125,50.68345290791417
4.2880312499999995,54.68121933468168
4.29603125,62.215562623725454
4.3040312499999995,66.15131597092665
4.31203125,67.34336957325878
4.3200312499999995,67.48923894107169
4.32803125,66.26984115343718
4.33603125,63.22332819248761
4.3440312500000005,58.671725128597615
4.35203125,54.41201855507469
4.3600312500000005,52.58327012579889
4.36803125,52.21269264481513
4.3760312500000005,54.64551353593624
4.38403125,57.1920383149148
4.3920312500000005,57.29906325839026
4.40003125,55.58081620278887
4.4080312500000005,54.00571311393328
4.41603125,53.253384775257366
4.4240312500000005,52.0292562820096
4.43203125,51.247155756330486
4.4400312500000005,58.13474261833082
4.44803125,64.98059815715494
4.4560312500000006,68.32518605910509
4.46403125,68.95421927629825
4.472031250000001,68.7354776648108
4.48003125,69.03523977198878
4.488031250000001,69.25099097205907
4.49603125,69.11841527898245
4.504031250000001,68.77571050868303
4.51203125,68.38682425992172
4.520031250000001,68.13452761042196
4.52803125,68.14621167539812
4.536031250000001,68.33089171925556
4.54403125,68.72875290741567
4.552031250000001,69.33806162972898
4.56003125,69.64025965421439
4.568031250000001,69.72262938671668
4.57603125,69.73254811725026
4.584031250000001,69.87801140525593
4.59203125,70.00506356075113
4.600031250000001,69.73107655424124
4.60803125,69.46232214253796
4.616031250000001,69.11866429197542
4.62403125,68.18046385535028
4.632031250000001,66.84069589764347
4.64003125,66.75365758599814
4.648031249999999,67.44947391788283
