time,intensity
0.032031249999999734,66.18288210438735
0.040031249999999734,66.03079057488014
0.048031249999999734,65.85506575533346
0.056031249999999734,66.2023911506033
0.06403124999999973,67.11620424460418
0.07203124999999974,67.74626474684099
0.08003124999999973,68.09966847345295
0.08803124999999973,68.26332843440169
0.09603124999999973,68.28859048794313
0.10403124999999974,68.4564783983558
0.11203124999999974,68.66222084532859
0.12003124999999973,68.84089196947573
0.12803124999999974,69.06012267334992
0.13603124999999974,69.11054066801623
0.14403124999999972,68.92348661560005
0.15203124999999973,68.77830636611722
0.16003124999999974,68.7916386525303
0.16803124999999974,68.43374836941499
0.17603124999999975,67.57844522591876
0.18403124999999973,66.62648328921509
0.19203124999999974,65.73884542118401
0.20003124999999974,64.99203269181066
0.20803124999999972,64.29095895361552
0.21603124999999973,64.44972660035977
0.22403124999999974,65.46679454215054
0.23203124999999974,66.62740187453637
0.24003124999999975,67.73304163777897
0.24803124999999973,68.85936243585749
0.2560312499999997,69.50592201264767
0.2640312499999997,69.75595656935907
0.2720312499999997,69.96859327549144
0.28003124999999973,70.05947396177135
0.28803124999999974,69.92292413694999
0.29603124999999975,69.51894835218995
0.30403124999999975,69.49822768154058
0.31203124999999976,69.94272847334953
0.32003124999999977,70.1055120029338
0.3280312499999997,69.83315222431403
0.3360312499999997,69.44847608500088
0.34403124999999973,69.07607067687172
0.35203124999999974,68.57067593802785
0.36003124999999975,67.7616208321221
0.36803124999999975,66.6036206563585
0.37603124999999976,64.70830422223621
0.3840312499999997,60.97753139274709
0.3920312499999997,54.94937804504602
0.4000312499999997,51.39093952969925
0.40803124999999973,51.73759217061988
0.41603124999999974,52.22104885623976
0.42403124999999975,52.865433910551005
0.43203124999999976,53.74902679906367
0.44003124999999976,54.59969034538241
0.44803124999999977,55.10147515311276
0.4560312499999997,55.78818326962826
0.46403124999999973,56.50481620095054
0.47203124999999974,56.661718898768015
0.48003124999999974,56.27573407326103
0.48803124999999975,55.482951641398955
0.49603124999999976,55.05868331974422
0.5040312499999997,54.69976458329255
0.5120312499999997,54.328926012769934
0.5200312499999997,54.68878780460032
0.5280312499999997,54.64981792415899
0.5360312499999997,54.236666344991676
0.5440312499999997,54.68158238231774
0.5520312499999998,55.39690682991036
0.5600312499999998,55.02342438947324
0.5680312499999998,54.244561992729885
0.5760312499999998,54.24402877251164
0.5840312499999998,54.70060848776864
0.5920312499999998,54.1950740122659
0.6000312499999998,52.442034447931825
0.6080312499999998,51.47176680311532
0.6160312499999997,51.88452768809558
0.6240312499999997,51.74163995315621
0.6320312499999997,51.28542736695106
0.6400312499999997,51.33636769672491
0.6480312499999997,52.13512634641231
0.6560312499999997,52.42181466029608
0.6640312499999997,52.341362573386085
0.6720312499999997,52.31835985858212
0.6800312499999998,51.597381335235966
0.6880312499999998,51.37628117068694
0.6960312499999998,51.967491110307705
0.7040312499999998,51.85088459148972
0.7120312499999998,50.976918276697745
0.7200312499999998,50.189067359309334
0.7280312499999998,50.55428625730041
0.7360312499999997,52.12408691541497
0.7440312499999997,53.30392391011743
0.7520312499999997,52.89517233227231
0.7600312499999997,51.42096942540522
0.7680312499999997,49.68649284271645
0.7760312499999997,48.43490565387208
0.7840312499999997,47.830251967117604
0.7920312499999997,50.356680139847995
0.8000312499999997,55.64393498712782
0.8080312499999998,59.07536049031543
0.8160312499999998,64.12959302973579
0.8240312499999998,68.85444613239858
0.8320312499999998,71.15899928784596
0.8400312499999998,71.92264025156702
0.8480312499999998,72.30162540025734
0.8560312499999998,72.81109060348986
0.8640312499999998,73.66186535685216
0.8720312499999997,74.05326793537303
0.8800312499999997,73.79693286208827
0.8880312499999997,74.42687549846744
0.8960312499999997,75.58474474968043
0.9040312499999997,76.19322771986042
0.9120312499999997,76.40011007597948
0.9200312499999997,76.41159448121815
0.9280312499999998,76.203057117453
0.9360312499999998,75.79034375248116
0.9440312499999998,75.39749279559119
0.9520312499999998,75.28165841794228
0.9600312499999998,75.65112182223623
0.9680312499999998,76.3967514211665
0.9760312499999998,77.0992115226504
0.9840312499999998,77.58766702532566
0.9920312499999997,77.66698482846137
1.0000312499999997,77.13628276568856
1.0080312499999997,76.51536905853688
1.0160312499999997,76.18095850568162
1.0240312499999997,75.70477415056659
1.0320312499999997,75.16683251160855
1.0400312499999997,74.9785215206058
1.0480312499999997,74.82698387283071
1.0560312499999998,74.12543078720005
1.0640312499999998,71.91777854325979
1.0720312499999998,68.09920167935984
1.0800312499999998,65.58786910014945
1.0880312499999998,66.03949471708388
1.0960312499999998,67.16279671471293
1.1040312499999998,68.27381254414301
1.1120312499999998,68.91606623802741
1.1200312499999998,69.04137206682063
1.1280312499999998,69.17904267863804
1.1360312499999998,69.13947414737925
1.1440312499999998,68.50753732079502
1.1520312499999998,67.76327022592282
1.1600312499999998,67.31518434012345
1.1680312499999999,67.19220239620711
1.1760312499999999,67.57528889274269
1.1840312499999999,68.20653341407964
1.1920312499999997,68.87648039843928
1.2000312499999997,69.63999812731106
1.2080312499999997,70.11561858560836
1.2160312499999997,70.07485362623345
1.2240312499999997,69.63612103449033
1.2320312499999997,68.65879142463783
1.2400312499999997,66.34289029347623
1.2480312499999997,62.51223111893374
1.2560312499999997,58.348271045926865
1.2640312499999997,54.218064352214704
1.2720312499999997,51.64084067002661
1.2800312499999997,50.97752724295546
1.2880312499999997,49.796577127385866
1.2960312499999997,50.07576373847517
1.3040312499999998,50.44350252019784
1.3120312499999998,49.7466957043362
1.3200312499999998,49.78129729321637
1.3280312499999998,50.73567105563853
1.3360312499999998,51.87160747390412
1.3440312499999998,53.624199130743946
1.3520312499999998,55.213006834587574
1.3600312499999998,55.84976137254741
1.3680312499999998,56.3834706221967
1.3760312499999998,62.468907814585236
1.3840312499999998,71.15237942857446
1.3920312499999998,76.48620145579564
1.4000312499999998,78.4527927783353
1.4080312499999998,77.52120848632225
1.4160312499999999,74.79560298264072
1.4240312499999999,72.1652213472701
1.4320312499999999,69.94539766958216
1.4400312499999997,67.42574595603062
1.4480312499999997,64.99543255220378
1.4560312499999997,63.5346518709045
1.4640312499999997,62.70246179851408
1.4720312499999997,60.70119031400299
1.4800312499999997,56.76730705750292
1.4880312499999997,52.54475140899554
1.4960312499999997,51.35866826568508
1.5040312499999997,52.144294515248134
1.5120312499999997,52.04222800705491
1.5200312499999997,51.03155210234662
1.5280312499999997,51.56874932465122
1.5360312499999997,59.54918384401736
1.5440312499999997,66.39087568084742
1.5520312499999998,70.05198869320128
1.5600312499999998,72.32455137453714
1.5680312499999998,74.16317708907421
1.5760312499999998,74.93110522881173
1.5840312499999998,74.06319937973065
1.5920312499999998,71.35459428910431
1.6000312499999998,66.96193689931279
1.6080312499999998,61.64154890019371
1.6160312499999998,57.82213767353619
1.6240312499999998,58.39007188056981
1.6320312499999998,57.79254365863576
1.6400312499999998,54.480895837704026
1.6480312499999998,52.19326424953116
1.6560312499999998,52.24334302306077
1.6640312499999999,52.162902364615974
1.6720312499999999,51.655174137241715
1.6800312499999999,51.055331667895246
1.6880312499999999,50.327387098217514
1.6960312499999999,54.608898793500025
1.7040312499999997,66.52760176349813
1.7120312499999997,73.61379860188376
1.7200312499999997,76.15994741190534
1.7280312499999997,75.64162550551045
1.7360312499999997,74.51177570792967
1.7440312499999997,74.47233854324621
1.7520312499999997,75.0299751994551
1.7600312499999997,75.50114542620351
1.7680312499999997,75.62968548082733
1.7760312499999997,75.398073913598
1.7840312499999997,75.11359249800435
1.7920312499999997,74.92745623404252
1.8000312499999997,74.88376601007877
1.8080312499999998,75.0908863953487
1.8160312499999998,75.1800782984738
1.8240312499999998,74.90684563844655
1.8320312499999998,74.49467435392324
1.8400312499999998,74.1712762056182
1.8480312499999998,73.69178419551714
1.8560312499999998,72.70977726872931
1.8640312499999998,71.81381523025776
1.8720312499999998,71.61228601398858
1.8800312499999998,71.18473847908245
1.8880312499999998,71.02348477598157
1.8960312499999998,71.07141877133964
1.9040312499999998,70.19560240983708
1.9120312499999998,69.40370750217683
1.9200312499999999,69.56680674201112
1.9280312499999999,69.68809639121947
1.9360312499999999,68.91907544228357
1.9440312499999999,67.61637643729206
1.9520312499999997,66.57469874407818
1.9600312499999997,65.37021235257002
1.9680312499999997,63.980428066360545
1.9760312499999997,63.017950461931065
1.9840312499999997,62.51608729263516
1.9920312499999997,62.65084244420565
2.0000312499999997,62.821248079287045
2.0080312499999997,61.85305652485933
2.0160312499999997,61.02556797094175
2.0240312499999997,60.77208763913943
2.0320312499999997,61.57639712535872
2.0400312499999997,62.20577624399559
2.0480312499999997,61.89941431217879
2.0560312499999998,61.68825282657798
2.0640312499999998,61.958237182052436
2.0720312499999998,62.21135908762961
2.0800312499999998,62.53243499347754
2.08803125,62.90783243462598
2.09603125,63.0691349003365
2.10403125,63.075759238793864
2.11203125,62.99449903554755
2.12003125,62.95275191961851
2.12803125,63.042002938429846
2.13603125,63.42442191133652
2.14403125,64.31397757619362
2.15203125,65.17611496390448
2.16003125,65.86796791359458
2.16803125,66.46535002119278
2.17603125,66.83718610023072
2.18403125,67.1477213286377
2.19203125,67.10496354531412
2.20003125,66.54491281128296
2.20803125,66.0153098959251
2.21603125,65.85367076170317
2.22403125,66.17906095084153
2.23203125,65.85119840172764
2.24003125,65.26483745555366
2.24803125,65.4773230047077
2.25603125,65.67450128013971
2.26403125,66.26862072040896
2.27203125,67.41388125393145
2.28003125,67.79255839468276
2.28803125,67.43363192420648
2.29603125,67.13363127787221
2.30403125,66.7572587659595
2.31203125,66.2764667423126
2.32003125,66.4501639887617
2.32803125,66.85035753038629
2.33603125,66.88406074801713
2.3440312499999996,66.310031848216
2.3520312499999996,65.91393346712994
2.3600312499999996,66.24250330428524
2.3680312499999996,66.67910557360729
2.3760312499999996,66.44944973857538
2.3840312499999996,65.41985023649998
2.3920312499999996,64.16160549066349
2.4000312499999996,62.69106095570323
2.4080312499999996,60.94801133453871
2.4160312499999996,59.94440628258911
2.4240312499999996,60.43445499769816
2.4320312499999996,62.09409731293984
2.4400312499999997,63.54629437774554
2.4480312499999997,64.00247604556814
2.4560312499999997,62.923997930980875
2.4640312499999997,60.36989881524568
2.4720312499999997,57.07842392243898
2.4800312499999997,53.446633754733135
2.4880312499999997,50.00664751296847
2.4960312499999997,48.78833475131634
2.5040312499999997,49.153387743479286
2.5120312499999997,51.004352185090326
2.5200312499999997,52.5803853879481
2.5280312499999997,53.05368100122656
2.5360312499999997,53.76439515764404
2.5440312499999997,55.76369714451182
2.5520312499999998,55.078847703721216
2.5600312499999998,51.35695372543683
2.5680312499999998,52.365131531405886
2.5760312499999998,55.60201875295072
2.58403125,56.96732624317551
2.59203125,56.987286521905716
2.60003125,56.78936312932826
2.60803125,60.594002990480966
2.61603125,67.3518118532026
2.62403125,70.92819670624364
2.63203125,71.7588154894162
2.64003125,71.81418792240342
2.64803125,72.04627290408753
2.65603125,71.96845383619491
2.66403125,71.75722418079579
2.67203125,71.88950320831918
2.68003125,71.90213386003893
2.68803125,70.62889432657983
2.69603125,67.77952429590427
2.70403125,64.9491814646281
2.71203125,63.6222544526856
2.72003125,64.34473781330895
2.72803125,66.68277761632251
2.73603125,69.42042181316067
2.74403125,71.49158991528418
2.75203125,72.7591925172955
2.76003125,73.40927724716528
2.76803125,73.53350977832521
2.77603125,73.24876750492228
2.78403125,72.78670399396138
2.79203125,72.28966907514071
2.80003125,71.77668481933124
2.80803125,71.30247800766665
2.81603125,70.86809777780572
2.82403125,70.48858163111228
2.83203125,69.93498165334633
2.84003125,69.4231116559809
2.8480312499999996,68.58405485277392
2.8560312499999996,66.76163572944294
2.8640312499999996,64.16390005892248
2.8720312499999996,61.459487233518246
2.8800312499999996,59.36456002617787
2.8880312499999996,57.72345336992106
2.8960312499999996,55.20830003717583
2.9040312499999996,52.08636352947308
2.9120312499999996,50.31171129712711
2.9200312499999996,50.563001710793365
2.9280312499999996,52.49095780032732
2.9360312499999996,54.306247016210534
2.9440312499999997,55.21818273909184
2.9520312499999997,54.96192279381098
2.9600312499999997,53.351457394517354
2.9680312499999997,54.05132474153838
2.9760312499999997,61.76454199377818
2.9840312499999997,67.13622935598421
2.9920312499999997,69.22669428272812
3.0000312499999997,69.65462357062958
3.0080312499999997,69.78305783790191
3.0160312499999997,69.93110788817526
3.0240312499999997,70.04642691100379
3.0320312499999997,70.1999142068323
3.0400312499999997,70.23000201404503
3.0480312499999997,69.80424548725479
3.0560312499999998,69.55309769943798
3.0640312499999998,69.48663133710473
3.0720312499999998,69.34908157242718
3.0800312499999998,69.1995133915655
3.08803125,68.95701640897003
3.09603125,68.42691522352774
3.10403125,67.38227918814601
3.11203125,66.46093415242036
3.12003125,66.31544384836063
3.12803125,66.24010372986565
3.13603125,66.29532036310478
3.14403125,66.44968382496464
3.15203125,66.40718613605793
3.16003125,66.23970618070261
3.16803125,66.29276526283986
3.17603125,66.36904602591088
3.18403125,66.17419625123279
3.19203125,66.13201718939766
3.20003125,66.12375632756992
3.20803125,65.73799712028654
3.21603125,64.92688775027771
3.22403125,63.81720591869872
3.23203125,62.827953754605886
3.24003125,61.77913995949713
3.24803125,60.481221646898106
3.25603125,59.770168991616245
3.26403125,60.47495021937575
3.27203125,62.74051052958417
3.28003125,65.39628116217699
3.28803125,67.37368427861328
3.29603125,68.27297893661002
3.30403125,67.88006131855992
3.31203125,67.22876127481646
3.32003125,67.23104440724336
3.32803125,67.37487032065292
3.33603125,67.41131509840378
3.34403125,67.41825723601245
3.35203125,67.25059898007807
3.36003125,67.17748378733324
3.3680312499999996,67.25383856263767
3.3760312499999996,67.36324010880925
3.3840312499999996,67.10941250880863
3.3920312499999996,66.67232039280057
3.4000312499999996,66.4771154640766
3.4080312499999996,66.36272842617578
3.4160312499999996,66.47758317587835
3.4240312499999996,66.4387802937616
3.4320312499999996,66.16200557804072
3.4400312499999997,65.90303612087087
3.4480312499999997,65.12080333498284
3.4560312499999997,64.11474379622084
3.4640312499999997,63.25900149277416
3.4720312499999997,62.47130329895655
3.4800312499999997,61.7815076360303
3.4880312499999997,60.96604280573886
3.4960312499999997,59.83336668926481
3.5040312499999997,58.70567924077495
3.5120312499999997,57.67936054846734
3.5200312499999997,57.390283966193394
3.5280312499999997,57.94485721992578
3.5360312499999997,58.65076480899984
3.5440312499999997,59.218845897421716
3.5520312499999998,60.27574632254093
3.5600312499999998,61.764991534290836
3.5680312499999998,63.23406320746657
3.5760312499999998,64.51896413905851
3.58403125,65.59963721258976
3.59203125,66.58453235213025
3.60003125,67.24505288387579
3.60803125,67.52120752728938
3.61603125,67.58767243198844
3.62403125,67.31891922235106
3.63203125,66.26787644162005
3.64003125,64.61487749428791
3.64803125,63.27504563358022
3.65603125,62.475791255738635
3.66403125,61.90751975727157
3.67203125,61.746209637240355
3.68003125,61.978330764471366
3.68803125,62.344107397412785
3.69603125,61.939015349078694
3.70403125,60.60276270660731
3.71203125,60.609576835528
3.72003125,61.154100800734625
3.72803125,60.830550496637336
3.73603125,59.647224616396095
3.74403125,57.88816027625987
3.75203125,55.5995030718661
3.76003125,54.12825121426573
3.76803125,53.56142513614628
3.77603125,53.25447628877568
3.78403125,52.972912291997204
3.79203125,52.04836434182458
3.80003125,50.71787037310756
3.80803125,50.348768864015206
3.81603125,50.51763922435305
3.82403125,50.7765542749881
3.83203125,50.95494344243541
3.84003125,51.1042232810128
3.84803125,52.223085749549476
3.85603125,52.370456759509395
3.86403125,50.23922532246228
3.8720312499999996,46.608086959441984
3.8800312499999996,44.98934871679583
3.8880312499999996,44.48397354839061
3.8960312499999996,43.80785634214519
3.9040312499999996,43.78566439096704
3.9120312499999996,45.324399995142514
3.9200312499999996,48.3428406722077
3.9280312499999996,50.69673202519863
3.9360312499999996,51.42901177493349
3.9440312499999997,50.50548678512138
3.9520312499999997,48.02863411750077
3.9600312499999997,46.2690570157079
3.9680312499999997,48.58255845882106
3.9760312499999997,51.33323113444387
3.9840312499999997,52.33314513042673
3.9920312499999997,51.32817111571225
4.000031249999999,49.522530268706305
4.00803125,49.03467600136149
4.016031249999999,48.88546426238108
4.02403125,48.21049321740534
4.032031249999999,47.17461538540018
4.04003125,46.41216978494154
4.048031249999999,46.6614648727381
4.05603125,46.96832319452396
4.064031249999999,47.4594381231901
4.07203125,48.70904034622108
4.080031249999999,50.069514115813725
4.08803125,50.84618671092584
4.096031249999999,50.11708461311895
4.10403125,48.162597262191454
4.112031249999999,47.26130014107147
4.12003125,47.637837036471076
4.128031249999999,47.72015555848503
4.13603125,48.34089937006637
4.144031249999999,48.2558708577449
4.15203125,47.6744493950134
4.160031249999999,49.19695640295704
4.16803125,50.57745853654847
4.176031249999999,49.90103228584219
4.18403125,49.20438749413074
4.192031249999999,50.19423766748268
4.20003125,50.194492136803895
4.2080312499999994,50.094522848598004
4.21603125,50.67697805333793
4.2240312499999995,49.449690692907126
4.23203125,46.42450312706006
4.2400312499999995,45.257679144333395
4.24803125,45.066914801037285
4.2560312499999995,43.53714600100162
4.26403125,43.52617536827648
4.2720312499999995,45.48492739640547
4.28003125,46.76217501867449
4.2880312499999995,48.19639622326215
4.29603125,48.9749534784259
4.3040312499999995,47.84362834569501
4.31203125,47.523514733921026
4.3200312499999995,49.98749072076989
4.32803125,51.18194854807355
4.33603125,50.56458857537155
4.3440312500000005,49.57729389544283
4.35203125,48.86003445833496
4.3600312500000005,47.83491122212624
4.36803125,47.438387856208486
4.3760312500000005,47.05964943082478
4.38403125,47.63471069926973
4.3920312500000005,49.67095048132918
4.40003125,50.63834757846534
4.4080312500000005,51.04455457060078
4.41603125,53.094701950136184
4.4240312500000005,54.93944937719562
4.43203125,55.44912926704018
4.4400312500000005,54.75921455330322
4.44803125,53.800696248153976
4.4560312500000006,54.21921432062195
4.46403125,55.282077141520276
4.472031250000001,55.4787762711694
4.48003125,59.65490990427841
4.488031250000001,66.02816678420871
4.49603125,69.34748427710345
4.504031250000001,70.6275099228901
4.51203125,71.05776288908697
4.520031250000001,70.98086574819686
4.52803125,70.67752198665643
4.536031250000001,70.35468517661265
4.54403125,69.99877929439005
4.552031250000001,69.55176745919522
4.56003125,69.17173389178998
4.568031250000001,68.94467287094727
4.57603125,68.77885990053032
4.584031250000001,68.28350625923474
4.59203125,67.63349026725034
4.600031250000001,67.0240244398627
4.60803125,66.20351831235065
4.616031250000001,65.60665688115976
4.62403125,65.50374857315165
4.632031250000001,65.64940617000178
4.64003125,65.70092824703822
