time,intensity
0.032031249999999734,41.87659688280755
0.040031249999999734,46.532701280173264
0.048031249999999734,51.095880222936046
0.056031249999999734,55.394183033281266
0.06403124999999973,60.01050074036108
0.07203124999999974,63.531856260096674
0.08003124999999973,65.77294695146725
0.08803124999999973,67.44826333361576
0.09603124999999973,68.95820603950065
0.10403124999999974,70.00282624549322
0.11203124999999974,70.45258886070732
0.12003124999999973,70.51451537517237
0.12803124999999974,70.43265717172723
0.13603124999999974,70.11857934358274
0.14403124999999972,69.38243793726711
0.15203124999999973,68.4857154977709
0.16003124999999974,68.19394431683085
0.16803124999999974,68.18484644099678
0.17603124999999975,67.66442435750983
0.18403124999999973,66.60715149115332
0.19203124999999974,65.26521920398433
0.20003124999999974,64.5245002179617
0.20803124999999972,64.12458994815346
0.21603124999999973,63.5332357717825
0.22403124999999974,63.01580969075953
0.23203124999999974,62.76757531418325
0.24003124999999975,62.39307613523701
0.24803124999999973,61.56124164077801
0.2560312499999997,60.49419465303056
0.2640312499999997,58.90670831307527
0.2720312499999997,57.070943298639946
0.28003124999999973,55.30914776617778
0.28803124999999974,52.68578463582125
0.29603124999999975,49.09659384512138
0.30403124999999975,47.3396416378245
0.31203124999999976,48.21549786372475
0.32003124999999977,48.61500903502709
0.3280312499999997,48.00596810417298
0.3360312499999997,48.51709864877597
0.34403124999999973,48.34886390174905
0.35203124999999974,46.16202882646653
0.36003124999999975,42.76606362402832
0.36803124999999975,41.01676528370444
0.37603124999999976,41.316566985440765
0.3840312499999997,41.27324565525888
0.3920312499999997,40.06051612060194
0.4000312499999997,38.670636179340455
0.40803124999999973,37.89870214680746
0.41603124999999974,37.55967390357835
0.42403124999999975,37.22990378967201
0.43203124999999976,37.65971158891198
0.44003124999999976,38.99230214454136
0.44803124999999977,39.97045594352164
0.4560312499999997,40.880102169474135
0.46403124999999973,41.88883254487315
0.47203124999999974,42.00356644388574
0.48003124999999974,41.88632588673567
0.48803124999999975,42.919475080210276
0.49603124999999976,43.64845357115744
0.5040312499999997,42.89040664124109
0.5120312499999997,42.090735084965175
0.5200312499999997,42.046537400860686
0.5280312499999997,41.73882195836289
0.5360312499999997,40.66834871143528
0.5440312499999997,40.33176134149686
0.5520312499999998,40.96450060636463
0.5600312499999998,41.888928466593434
0.5680312499999998,42.97251115577673
0.5760312499999998,44.94365732574268
0.5840312499999998,50.671783671449745
0.5920312499999998,59.25251231047788
0.6000312499999998,64.99657974951126
0.6080312499999998,68.06768685998986
0.6160312499999997,69.70663872373343
0.6240312499999997,70.80096517846806
0.6320312499999997,71.53958871629989
0.6400312499999997,71.97745460365714
0.6480312499999997,72.25056543490372
0.6560312499999997,72.67393111972815
0.6640312499999997,73.43763799835165
0.6720312499999997,74.29460474874172
0.6800312499999998,74.54057989238679
0.6880312499999998,73.98996245981675
0.6960312499999998,73.19399834622118
0.7040312499999998,72.26952537963784
0.7120312499999998,71.26077774807413
0.7200312499999998,70.35280867006313
0.7280312499999998,69.81298648930559
0.7360312499999997,70.01011164442733
0.7440312499999997,70.91874745746155
0.7520312499999997,72.12153366036682
0.7600312499999997,73.16686634539585
0.7680312499999997,73.74269850756139
0.7760312499999997,73.77075999271341
0.7840312499999997,73.36233803841513
0.7920312499999997,72.98046081999973
0.8000312499999997,72.84839539306545
0.8080312499999998,72.5650937234395
0.8160312499999998,71.67659496742611
0.8240312499999998,70.33947733796327
0.8320312499999998,69.17078338083941
0.8400312499999998,67.7569874406764
0.8480312499999998,64.73910695512147
0.8560312499999998,59.77205976918646
0.8640312499999998,54.89595217746674
0.8720312499999997,54.02540909192634
0.8800312499999997,57.14334090321404
0.8880312499999997,61.79469872686272
0.8960312499999997,68.0168492315597
0.9040312499999997,72.5310023633351
0.9120312499999997,74.69503058808952
0.9200312499999997,75.99640289389592
0.9280312499999998,76.57105223808445
0.9360312499999998,75.87802114735025
0.9440312499999998,73.90814068911764
0.9520312499999998,70.65990420884008
0.9600312499999998,67.3286675578548
0.9680312499999998,66.52618123181136
0.9760312499999998,66.92264826324048
0.9840312499999998,67.18312267778704
0.9920312499999997,67.15861896255258
1.0000312499999997,66.93435293484454
1.0080312499999997,66.88125189134918
1.0160312499999997,67.18892675899244
1.0240312499999997,68.33945093724071
1.0320312499999997,69.97849361107718
1.0400312499999997,71.05704906136458
1.0480312499999997,71.6137334135918
1.0560312499999998,72.14017567000205
1.0640312499999998,72.39789992112578
1.0720312499999998,72.13063431994415
1.0800312499999998,71.33585567235058
1.0880312499999998,70.18846090163207
1.0960312499999998,69.43309787636221
1.1040312499999998,69.53892593164852
1.1120312499999998,70.0108642607579
1.1200312499999998,70.31707409640306
1.1280312499999998,70.1317611357806
1.1360312499999998,68.88126536883628
1.1440312499999998,66.51271892532998
1.1520312499999998,64.74669033795713
1.1600312499999998,63.6136196248037
1.1680312499999999,61.987335187853574
1.1760312499999999,61.230283937970455
1.1840312499999999,65.12096163275535
1.1920312499999997,69.54967327128122
1.2000312499999997,71.65395259758974
1.2080312499999997,72.86898056069474
1.2160312499999997,74.0697612832294
1.2240312499999997,75.09083145080606
1.2320312499999997,75.67966506666045
1.2400312499999997,75.57585789013875
1.2480312499999997,74.9551956632263
1.2560312499999997,74.0150445714823
1.2640312499999997,72.69053068264793
1.2720312499999997,71.12692421482274
1.2800312499999997,69.61391370137036
1.2880312499999997,67.88360270770656
1.2960312499999997,65.75284755223245
1.3040312499999998,62.92856117756539
1.3120312499999998,59.90357435188596
1.3200312499999998,58.34416327152646
1.3280312499999998,58.544195835457046
1.3360312499999998,59.56544084352182
1.3440312499999998,61.85552515460195
1.3520312499999998,64.88814055581584
1.3600312499999998,68.68185243826389
1.3680312499999998,72.12370039193564
1.3760312499999998,74.35904304849431
1.3840312499999998,75.39378536862134
1.3920312499999998,75.84272589360754
1.4000312499999998,76.07691551073445
1.4080312499999998,75.87500162686979
1.4160312499999999,75.14811488434934
1.4240312499999999,74.14664963047744
1.4320312499999999,73.03808682534851
1.4400312499999997,71.48245633402227
1.4480312499999997,69.41129612034689
1.4560312499999997,67.58314700132375
1.4640312499999997,66.71743866562325
1.4720312499999997,66.8758296898175
1.4800312499999997,67.14838243727046
1.4880312499999997,66.44463135117797
1.4960312499999997,65.18830408264851
1.5040312499999997,63.8772457582276
1.5120312499999997,62.92316634281404
1.5200312499999997,62.89289060378141
1.5280312499999997,63.79367796870756
1.5360312499999997,65.40412213558302
1.5440312499999997,65.8457229560341
1.5520312499999998,65.36350097057496
1.5600312499999998,65.40843774966882
1.5680312499999998,65.37308118096617
1.5760312499999998,65.72925030607698
1.5840312499999998,65.93185577986151
1.5920312499999998,65.22330784957376
1.6000312499999998,67.21683030835717
1.6080312499999998,72.84619786032415
1.6160312499999998,75.79485523866995
1.6240312499999998,75.31901932137288
1.6320312499999998,72.28195211972124
1.6400312499999998,69.56615159524985
1.6480312499999998,68.7746113504402
1.6560312499999998,68.42423067835566
1.6640312499999999,68.98687329889347
1.6720312499999999,69.56778534609425
1.6800312499999999,69.5562685122854
1.6880312499999999,69.47197699872609
1.6960312499999999,69.69966417085958
1.7040312499999997,70.03362209378467
1.7120312499999997,70.13176327190959
1.7200312499999997,69.98294811489752
1.7280312499999997,69.4499844648457
1.7360312499999997,67.96842056041018
1.7440312499999997,65.54088379174074
1.7520312499999997,62.60522588539851
1.7600312499999997,59.705759501331514
1.7680312499999997,57.728048712258804
1.7760312499999997,56.715608329054334
1.7840312499999997,55.42933817941088
1.7920312499999997,53.28134663830796
1.8000312499999997,50.207021460096755
1.8080312499999998,48.26634368998819
1.8160312499999998,48.06290550413054
1.8240312499999998,47.849386350010775
1.8320312499999998,49.423218051624794
1.8400312499999998,56.45019283264881
1.8480312499999998,63.861909007226494
1.8560312499999998,69.0740191465696
1.8640312499999998,71.93268817397633
1.8720312499999998,72.9867372552068
1.8800312499999998,73.13081495537338
1.8880312499999998,72.84331932748408
1.8960312499999998,71.61639315285237
1.9040312499999998,69.2321266627223
1.9120312499999998,67.3823692605084
1.9200312499999999,67.41345708847773
1.9280312499999999,67.45737581425783
1.9360312499999999,67.00924245690263
1.9440312499999999,67.11529616049727
1.9520312499999997,67.8103004132129
1.9600312499999997,68.28934450196068
1.9680312499999997,68.44556175615564
1.9760312499999997,68.35839284187881
1.9840312499999997,67.89293761079081
1.9920312499999997,67.08440730199752
2.0000312499999997,66.24207859435097
2.0080312499999997,64.85176249993353
2.0160312499999997,62.92915007955581
2.0240312499999997,62.00907677399768
2.0320312499999997,61.70422300429095
2.0400312499999997,61.24497248098141
2.0480312499999997,60.77805266746406
2.0560312499999998,60.314740711835654
2.0640312499999998,59.589111370923064
2.0720312499999998,58.463593326067524
2.0800312499999998,60.688581458943524
2.08803125,65.7664653485457
2.09603125,69.46454630530495
2.10403125,71.80276563782346
2.11203125,72.94602541719084
2.12003125,72.8325947508917
2.12803125,72.15984964069749
2.13603125,72.10043687153708
2.14403125,72.62675825694382
2.15203125,72.9354218164827
2.16003125,72.74691486688538
2.16803125,72.2551654977296
2.17603125,71.92544705618428
2.18403125,72.0311785170782
2.19203125,71.9697407962386
2.20003125,70.99274601398255
2.20803125,69.42715464374155
2.21603125,68.85614981561349
2.22403125,68.74235078239026
2.23203125,66.73884417839503
2.24003125,62.16327658662571
2.24803125,58.887203085479356
2.25603125,58.80619183762139
2.26403125,58.58450094358869
2.27203125,58.79490592208204
2.28003125,59.48789215665965
2.28803125,60.06752036967984
2.29603125,60.77982547102149
2.30403125,62.88845881251619
2.31203125,66.51491469066906
2.32003125,69.43907304020803
2.32803125,70.97048557213328
2.33603125,71.60310167721954
2.3440312499999996,71.7876417326604
2.3520312499999996,71.68423716238506
2.3600312499999996,71.39203489823502
2.3680312499999996,71.27920375703141
2.3760312499999996,71.47530214752771
2.3840312499999996,71.67299211408567
2.3920312499999996,71.73582365629868
2.4000312499999996,71.56213161039842
2.4080312499999996,71.11147111022233
2.4160312499999996,70.49361862829204
2.4240312499999996,69.74247622872258
2.4320312499999996,68.69422788087333
2.4400312499999997,67.515558517832
2.4480312499999997,66.45157998667288
2.4560312499999997,65.81562125146647
2.4640312499999997,65.45715730768856
2.4720312499999997,64.27333175477598
2.4800312499999997,61.96629061034927
2.4880312499999997,59.66255091265409
2.4960312499999997,57.75128086460215
2.5040312499999997,55.564655161819715
2.5120312499999997,53.421831127435986
2.5200312499999997,51.618013623993335
2.5280312499999997,49.740591814132166
2.5360312499999997,47.75953049200445
2.5440312499999997,44.871590551735885
2.5520312499999998,41.49962939356122
2.5600312499999998,40.22006700926337
2.5680312499999998,39.00234885206978
2.5760312499999998,37.97303924291868
2.58403125,38.21435959119661
2.59203125,37.83475331695779
2.60003125,37.85879555077534
2.60803125,37.86613804681915
2.61603125,38.79329122283966
2.62403125,41.31936359890064
2.63203125,42.77193196197376
2.64003125,42.63951757970623
2.64803125,41.28527578642575
2.65603125,39.604651482217584
2.66403125,40.231223111951174
2.67203125,41.54700232598764
2.68003125,40.70357776222675
2.68803125,37.79039298457435
2.69603125,36.704902638284736
2.70403125,39.62295037752965
2.71203125,47.33212870459145
2.72003125,55.42471013743164
2.72803125,60.6750277455567
2.73603125,64.00048619967849
2.74403125,66.47646160747024
2.75203125,68.36801266174577
2.76003125,69.78784697879432
2.76803125,70.79149760264114
2.77603125,71.31736021205761
2.78403125,71.23186023984915
2.79203125,70.66192071178173
2.80003125,70.03005696138877
2.80803125,69.61805588203374
2.81603125,69.31729815090121
2.82403125,69.10976299051205
2.83203125,68.89586938002255
2.84003125,68.57325766415106
2.8480312499999996,68.22331173085735
2.8560312499999996,68.2990908208134
2.8640312499999996,68.9422763867428
2.8720312499999996,69.92585596532221
2.8800312499999996,71.95972333341005
2.8880312499999996,73.59893084902752
2.8960312499999996,73.82352088513233
2.9040312499999996,73.21305628985468
2.9120312499999996,72.76605066636112
2.9200312499999996,73.13960245832483
2.9280312499999996,73.67179786222283
2.9360312499999996,73.005497495562
2.9440312499999997,70.37562600102243
2.9520312499999997,65.82075907835625
2.9600312499999997,61.26324289263438
2.9680312499999997,57.384571359065646
2.9760312499999997,53.69615345820658
2.9840312499999997,53.4392211549426
2.9920312499999997,59.69298498411276
3.0000312499999997,67.16937598157455
3.0080312499999997,71.72523463436745
3.0160312499999997,73.61577473664622
3.0240312499999997,73.88260262863903
3.0320312499999997,72.72181308190703
3.0400312499999997,70.83332013785504
3.0480312499999997,69.87309825957013
3.0560312499999998,69.77492747684428
3.0640312499999998,69.80333279745595
3.0720312499999998,69.37429155379772
3.0800312499999998,68.80877178458493
3.08803125,68.85780521543262
3.09603125,68.2046713022238
3.10403125,65.20162664300773
3.11203125,61.41756335079043
3.12003125,60.94876378523583
3.12803125,61.30839231791584
3.13603125,61.353285682345124
3.14403125,60.853334469485425
3.15203125,59.71364985395518
3.16003125,61.199821495817936
3.16803125,66.08045186319646
3.17603125,68.54002025177844
3.18403125,68.84109164132579
3.19203125,69.14068348341262
3.20003125,70.64173274885367
3.20803125,71.97397257165649
3.21603125,72.32657413573209
3.22403125,72.20581457332071
3.23203125,71.90048854750975
3.24003125,71.84294473030135
3.24803125,71.88334715723128
3.25603125,71.95297160741833
3.26403125,72.24815595503262
3.27203125,72.34155975849369
3.28003125,71.12527347276468
3.28803125,67.41885834174839
3.29603125,62.98840020317967
3.30403125,62.69487983662479
3.31203125,62.925700804894554
3.32003125,62.65587572839584
3.32803125,62.44871366439863
3.33603125,62.36585585799142
3.34403125,62.11490661771742
3.35203125,61.49830200373923
3.36003125,60.72578823762886
3.3680312499999996,60.16547195168484
3.3760312499999996,60.055366574751396
3.3840312499999996,60.48943455365696
3.3920312499999996,60.15680360746855
3.4000312499999996,59.24303626992394
3.4080312499999996,59.06364150779793
3.4160312499999996,58.76550729476152
3.4240312499999996,57.09357245624852
3.4320312499999996,53.67385882814105
3.4400312499999997,49.892901069746394
3.4480312499999997,48.34310179262822
3.4560312499999997,47.42399999580204
3.4640312499999997,45.335267948284496
3.4720312499999997,44.99514157534911
3.4800312499999997,45.802028403674996
3.4880312499999997,45.45828888036667
3.4960312499999997,43.8532586788027
3.5040312499999997,42.65268381155145
3.5120312499999997,42.291379165061215
3.5200312499999997,42.23806255606024
3.5280312499999997,43.584113452553794
3.5360312499999997,47.159685512461984
3.5440312499999997,51.62347344390515
3.5520312499999998,56.76192941733869
3.5600312499999998,62.325747207862975
3.5680312499999998,66.1415376943941
3.5760312499999998,68.08129493091604
3.58403125,68.80271314603901
3.59203125,68.47562659608555
3.60003125,67.37163866752228
3.60803125,67.24591639514428
3.61603125,68.7767352573714
3.62403125,70.09506028012972
3.63203125,70.40836224113364
3.64003125,69.98315396293171
3.64803125,69.57470477623214
3.65603125,69.44670958846575
3.66403125,68.96274046226681
3.67203125,67.58839701018022
3.68003125,65.0601975094454
3.68803125,62.728739691224135
3.69603125,64.10949058209297
3.70403125,67.0618375209201
3.71203125,69.2884018869628
3.72003125,71.6288899616429
3.72803125,74.46629826571689
3.73603125,76.35509319360344
3.74403125,77.10085963317144
3.75203125,76.44633169233222
3.76003125,73.85696936367775
3.76803125,70.247419861086
3.77603125,68.64152002853554
3.78403125,68.82755248547704
3.79203125,69.11038985602352
3.80003125,68.71592260554944
3.80803125,67.89953352858302
3.81603125,67.1414252818395
3.82403125,66.77211555254377
3.83203125,67.31017827997402
3.84003125,67.97804984038747
3.84803125,68.25069221639227
3.85603125,68.67860127228386
3.86403125,69.38060596926242
3.8720312499999996,70.20257241143231
3.8800312499999996,70.67609427953684
3.8880312499999996,70.63909204969595
3.8960312499999996,70.63671686161888
3.9040312499999996,70.4082092219163
3.9120312499999996,69.50839778544832
3.9200312499999996,68.58457142648922
3.9280312499999996,67.863032946544
3.9360312499999996,66.67273373980105
3.9440312499999997,65.06964122354802
3.9520312499999997,63.3422122269227
3.9600312499999997,60.87429555922313
3.9680312499999997,58.977045965582064
3.9760312499999997,59.11763669381223
3.9840312499999997,59.990493289250786
3.9920312499999997,61.68552114871509
4.000031249999999,63.18937244855965
4.00803125,63.87820820030989
4.016031249999999,64.06202973518903
4.02403125,63.98816684278845
4.032031249999999,63.618259874698495
4.04003125,63.28036535132398
4.048031249999999,63.916999121757996
4.05603125,66.29295073311947
4.064031249999999,69.07692363236299
4.07203125,71.44234243831849
4.080031249999999,74.40803901191465
4.08803125,76.75594629547729
4.096031249999999,77.02233233171259
4.10403125,74.82800756286753
4.112031249999999,71.12470652456824
4.12003125,68.61164568049686
4.128031249999999,67.39543766327442
4.13603125,66.75749280388916
4.144031249999999,66.18542867237807
4.15203125,64.76058965319133
4.160031249999999,63.10513021665212
4.16803125,63.23245586521047
4.176031249999999,64.4062177446901
4.18403125,65.61883536510433
4.192031249999999,66.81666062941052
4.20003125,67.70779145219134
4.2080312499999994,68.30358106512209
4.21603125,68.64969513194421
4.2240312499999995,69.07497553868419
4.23203125,69.80626448588913
4.2400312499999995,70.59883847115961
4.24803125,71.19486929076804
4.2560312499999995,71.49649943248843
4.26403125,71.74471439407893
4.2720312499999995,71.93387214593592
4.28003125,71.99752418446174
4.2880312499999995,72.31906086901786
4.29603125,72.81163726669088
4.3040312499999995,72.74824383717625
4.31203125,71.52688453026241
4.3200312499999995,69.17252689351334
4.32803125,66.81926305625704
4.33603125,65.79859547935106
4.3440312500000005,65.49872534657241
4.35203125,64.8441476661609
4.3600312500000005,63.515239697035746
4.36803125,62.20609196051523
4.3760312500000005,60.89398895221989
4.38403125,59.16632690984275
4.3920312500000005,56.80964021698117
4.40003125,53.30572385436916
4.4080312500000005,51.23141393066514
4.41603125,49.748532041562086
4.4240312500000005,47.66541152835521
4.43203125,46.660683865982186
4.4400312500000005,45.55095232167978
4.44803125,43.89373262692402
4.4560312500000006,46.779075663250126
4.46403125,55.39958054792691
4.472031250000001,63.692869859363526
4.48003125,70.01841014317097
4.488031250000001,73.60436448440032
4.49603125,74.6785665225734
4.504031250000001,73.95314733673717
4.51203125,72.28455893532751
4.520031250000001,70.20197402533168
4.52803125,68.2086563609297
4.536031250000001,66.80422659814296
4.54403125,65.38232659143198
4.552031250000001,63.249989197963934
4.56003125,61.587704419659055
4.568031250000001,60.933643988933824
4.57603125,60.240136874483994
4.584031250000001,59.770101749757806
4.59203125,59.8644533186979
4.600031250000001,60.03915004847321
4.60803125,60.36216488421157
4.616031250000001,61.04287642230884
4.62403125,61.70202909478093
4.632031250000001,62.12349871260018
4.64003125,63.48079878251393
